# TOPAS Version: 3.6.p1
# Parameter File: mini_SOBP.txt
# Results for scorer MyScorer
# Scored in component: PVTreconstructedarea
# X in 161 bins of 0.0063354 cm
# Y in 1 bin  of 1.18 cm
# Z in 170 bins of 0.00647059 cm
# DoseToWater ( Gy ) : Sum   
0, 0, 0, 0
0, 0, 1, 0
0, 0, 2, 0
0, 0, 3, 0
0, 0, 4, 0
0, 0, 5, 0
0, 0, 6, 0
0, 0, 7, 0
0, 0, 8, 0
0, 0, 9, 0
0, 0, 10, 0
0, 0, 11, 0
0, 0, 12, 0
0, 0, 13, 0
0, 0, 14, 0
0, 0, 15, 0
0, 0, 16, 0
0, 0, 17, 0
0, 0, 18, 0
0, 0, 19, 0
0, 0, 20, 0
0, 0, 21, 0
0, 0, 22, 0
0, 0, 23, 0
0, 0, 24, 0
0, 0, 25, 0
0, 0, 26, 0
0, 0, 27, 0
0, 0, 28, 0
0, 0, 29, 0
0, 0, 30, 0
0, 0, 31, 0
0, 0, 32, 0
0, 0, 33, 0
0, 0, 34, 0
0, 0, 35, 0
0, 0, 36, 0
0, 0, 37, 0
0, 0, 38, 0
0, 0, 39, 0
0, 0, 40, 0
0, 0, 41, 0
0, 0, 42, 0
0, 0, 43, 0
0, 0, 44, 0
0, 0, 45, 0
0, 0, 46, 0
0, 0, 47, 0
0, 0, 48, 0
0, 0, 49, 0
0, 0, 50, 0
0, 0, 51, 0
0, 0, 52, 0
0, 0, 53, 0
0, 0, 54, 0
0, 0, 55, 0
0, 0, 56, 0
0, 0, 57, 0
0, 0, 58, 0
0, 0, 59, 0
0, 0, 60, 0
0, 0, 61, 0
0, 0, 62, 0
0, 0, 63, 0
0, 0, 64, 0
0, 0, 65, 0
0, 0, 66, 0
0, 0, 67, 0
0, 0, 68, 0
0, 0, 69, 0
0, 0, 70, 0
0, 0, 71, 0
0, 0, 72, 0
0, 0, 73, 0
0, 0, 74, 0
0, 0, 75, 0
0, 0, 76, 0
0, 0, 77, 0
0, 0, 78, 0
0, 0, 79, 0
0, 0, 80, 0
0, 0, 81, 0
0, 0, 82, 0
0, 0, 83, 0
0, 0, 84, 0
0, 0, 85, 0
0, 0, 86, 0
0, 0, 87, 0
0, 0, 88, 0
0, 0, 89, 0
0, 0, 90, 0
0, 0, 91, 0
0, 0, 92, 0
0, 0, 93, 0
0, 0, 94, 0
0, 0, 95, 0
0, 0, 96, 0
0, 0, 97, 0
0, 0, 98, 0
0, 0, 99, 0
0, 0, 100, 0
0, 0, 101, 0
0, 0, 102, 0
0, 0, 103, 0
0, 0, 104, 0
0, 0, 105, 0
0, 0, 106, 0
0, 0, 107, 0
0, 0, 108, 0
0, 0, 109, 0
0, 0, 110, 0
0, 0, 111, 0
0, 0, 112, 0
0, 0, 113, 0
0, 0, 114, 0
0, 0, 115, 0
0, 0, 116, 0
0, 0, 117, 0
0, 0, 118, 0
0, 0, 119, 0
0, 0, 120, 0
0, 0, 121, 0
0, 0, 122, 0
0, 0, 123, 0
0, 0, 124, 0
0, 0, 125, 0
0, 0, 126, 0
0, 0, 127, 0
0, 0, 128, 0
0, 0, 129, 0
0, 0, 130, 0
0, 0, 131, 0
0, 0, 132, 0
0, 0, 133, 0
0, 0, 134, 0
0, 0, 135, 0
0, 0, 136, 0
0, 0, 137, 0
0, 0, 138, 0
0, 0, 139, 0
0, 0, 140, 0
0, 0, 141, 0
0, 0, 142, 0
0, 0, 143, 0
0, 0, 144, 0
0, 0, 145, 0
0, 0, 146, 0
0, 0, 147, 0
0, 0, 148, 0
0, 0, 149, 0
0, 0, 150, 0
0, 0, 151, 0
0, 0, 152, 0
0, 0, 153, 0
0, 0, 154, 0
0, 0, 155, 0
0, 0, 156, 0
0, 0, 157, 0
0, 0, 158, 0
0, 0, 159, 0
0, 0, 160, 0
0, 0, 161, 0
0, 0, 162, 0
0, 0, 163, 0
0, 0, 164, 0
0, 0, 165, 0
0, 0, 166, 0
0, 0, 167, 0
0, 0, 168, 0
0, 0, 169, 0
1, 0, 0, 0
1, 0, 1, 0
1, 0, 2, 0
1, 0, 3, 0
1, 0, 4, 0
1, 0, 5, 0
1, 0, 6, 0
1, 0, 7, 0
1, 0, 8, 0
1, 0, 9, 0
1, 0, 10, 0
1, 0, 11, 0
1, 0, 12, 0
1, 0, 13, 0
1, 0, 14, 0
1, 0, 15, 0
1, 0, 16, 0
1, 0, 17, 0
1, 0, 18, 0
1, 0, 19, 0
1, 0, 20, 0
1, 0, 21, 0
1, 0, 22, 0
1, 0, 23, 0
1, 0, 24, 0
1, 0, 25, 0
1, 0, 26, 0
1, 0, 27, 0
1, 0, 28, 0
1, 0, 29, 0
1, 0, 30, 0
1, 0, 31, 0
1, 0, 32, 0
1, 0, 33, 0
1, 0, 34, 0
1, 0, 35, 0
1, 0, 36, 0
1, 0, 37, 0
1, 0, 38, 0
1, 0, 39, 0
1, 0, 40, 0
1, 0, 41, 0
1, 0, 42, 0
1, 0, 43, 0
1, 0, 44, 0
1, 0, 45, 0
1, 0, 46, 0
1, 0, 47, 0
1, 0, 48, 0
1, 0, 49, 0
1, 0, 50, 0
1, 0, 51, 0
1, 0, 52, 0
1, 0, 53, 0
1, 0, 54, 0
1, 0, 55, 0
1, 0, 56, 0
1, 0, 57, 0
1, 0, 58, 0
1, 0, 59, 0
1, 0, 60, 0
1, 0, 61, 0
1, 0, 62, 0
1, 0, 63, 0
1, 0, 64, 0
1, 0, 65, 0
1, 0, 66, 0
1, 0, 67, 0
1, 0, 68, 0
1, 0, 69, 0
1, 0, 70, 0
1, 0, 71, 0
1, 0, 72, 0
1, 0, 73, 0
1, 0, 74, 0
1, 0, 75, 0
1, 0, 76, 0
1, 0, 77, 0
1, 0, 78, 0
1, 0, 79, 0
1, 0, 80, 0
1, 0, 81, 0
1, 0, 82, 0
1, 0, 83, 0
1, 0, 84, 0
1, 0, 85, 0
1, 0, 86, 0
1, 0, 87, 0
1, 0, 88, 0
1, 0, 89, 0
1, 0, 90, 0
1, 0, 91, 0
1, 0, 92, 0
1, 0, 93, 0
1, 0, 94, 0
1, 0, 95, 0
1, 0, 96, 0
1, 0, 97, 0
1, 0, 98, 0
1, 0, 99, 0
1, 0, 100, 0
1, 0, 101, 0
1, 0, 102, 0
1, 0, 103, 0
1, 0, 104, 0
1, 0, 105, 0
1, 0, 106, 0
1, 0, 107, 0
1, 0, 108, 0
1, 0, 109, 0
1, 0, 110, 0
1, 0, 111, 0
1, 0, 112, 0
1, 0, 113, 0
1, 0, 114, 0
1, 0, 115, 0
1, 0, 116, 0
1, 0, 117, 0
1, 0, 118, 0
1, 0, 119, 0
1, 0, 120, 0
1, 0, 121, 0
1, 0, 122, 0
1, 0, 123, 0
1, 0, 124, 0
1, 0, 125, 0
1, 0, 126, 0
1, 0, 127, 0
1, 0, 128, 0
1, 0, 129, 0
1, 0, 130, 0
1, 0, 131, 0
1, 0, 132, 0
1, 0, 133, 0
1, 0, 134, 0
1, 0, 135, 0
1, 0, 136, 0
1, 0, 137, 0
1, 0, 138, 0
1, 0, 139, 0
1, 0, 140, 0
1, 0, 141, 0
1, 0, 142, 0
1, 0, 143, 0
1, 0, 144, 0
1, 0, 145, 0
1, 0, 146, 0
1, 0, 147, 0
1, 0, 148, 0
1, 0, 149, 0
1, 0, 150, 0
1, 0, 151, 0
1, 0, 152, 0
1, 0, 153, 0
1, 0, 154, 0
1, 0, 155, 0
1, 0, 156, 0
1, 0, 157, 0
1, 0, 158, 0
1, 0, 159, 0
1, 0, 160, 0
1, 0, 161, 0
1, 0, 162, 0
1, 0, 163, 0
1, 0, 164, 0
1, 0, 165, 0
1, 0, 166, 0
1, 0, 167, 0
1, 0, 168, 0
1, 0, 169, 0
2, 0, 0, 0
2, 0, 1, 0
2, 0, 2, 0
2, 0, 3, 0
2, 0, 4, 0
2, 0, 5, 0
2, 0, 6, 0
2, 0, 7, 0
2, 0, 8, 0
2, 0, 9, 0
2, 0, 10, 0
2, 0, 11, 0
2, 0, 12, 0
2, 0, 13, 0
2, 0, 14, 0
2, 0, 15, 0
2, 0, 16, 0
2, 0, 17, 0
2, 0, 18, 0
2, 0, 19, 0
2, 0, 20, 0
2, 0, 21, 0
2, 0, 22, 0
2, 0, 23, 0
2, 0, 24, 0
2, 0, 25, 0
2, 0, 26, 0
2, 0, 27, 0
2, 0, 28, 0
2, 0, 29, 0
2, 0, 30, 0
2, 0, 31, 0
2, 0, 32, 0
2, 0, 33, 0
2, 0, 34, 0
2, 0, 35, 0
2, 0, 36, 0
2, 0, 37, 0
2, 0, 38, 0
2, 0, 39, 0
2, 0, 40, 0
2, 0, 41, 0
2, 0, 42, 0
2, 0, 43, 0
2, 0, 44, 0
2, 0, 45, 0
2, 0, 46, 0
2, 0, 47, 0
2, 0, 48, 0
2, 0, 49, 0
2, 0, 50, 0
2, 0, 51, 0
2, 0, 52, 0
2, 0, 53, 0
2, 0, 54, 0
2, 0, 55, 0
2, 0, 56, 0
2, 0, 57, 0
2, 0, 58, 0
2, 0, 59, 0
2, 0, 60, 0
2, 0, 61, 0
2, 0, 62, 0
2, 0, 63, 0
2, 0, 64, 0
2, 0, 65, 0
2, 0, 66, 0
2, 0, 67, 0
2, 0, 68, 0
2, 0, 69, 0
2, 0, 70, 0
2, 0, 71, 0
2, 0, 72, 0
2, 0, 73, 0
2, 0, 74, 0
2, 0, 75, 0
2, 0, 76, 0
2, 0, 77, 0
2, 0, 78, 0
2, 0, 79, 0
2, 0, 80, 0
2, 0, 81, 0
2, 0, 82, 0
2, 0, 83, 0
2, 0, 84, 0
2, 0, 85, 0
2, 0, 86, 0
2, 0, 87, 0
2, 0, 88, 0
2, 0, 89, 0
2, 0, 90, 0
2, 0, 91, 0
2, 0, 92, 0
2, 0, 93, 0
2, 0, 94, 0
2, 0, 95, 0
2, 0, 96, 0
2, 0, 97, 0
2, 0, 98, 0
2, 0, 99, 0
2, 0, 100, 0
2, 0, 101, 0
2, 0, 102, 0
2, 0, 103, 0
2, 0, 104, 0
2, 0, 105, 0
2, 0, 106, 0
2, 0, 107, 0
2, 0, 108, 0
2, 0, 109, 0
2, 0, 110, 0
2, 0, 111, 0
2, 0, 112, 0
2, 0, 113, 0
2, 0, 114, 0
2, 0, 115, 0
2, 0, 116, 0
2, 0, 117, 0
2, 0, 118, 0
2, 0, 119, 0
2, 0, 120, 0
2, 0, 121, 0
2, 0, 122, 0
2, 0, 123, 0
2, 0, 124, 0
2, 0, 125, 0
2, 0, 126, 0
2, 0, 127, 0
2, 0, 128, 0
2, 0, 129, 0
2, 0, 130, 0
2, 0, 131, 0
2, 0, 132, 0
2, 0, 133, 0
2, 0, 134, 0
2, 0, 135, 0
2, 0, 136, 0
2, 0, 137, 0
2, 0, 138, 0
2, 0, 139, 0
2, 0, 140, 0
2, 0, 141, 0
2, 0, 142, 0
2, 0, 143, 0
2, 0, 144, 0
2, 0, 145, 0
2, 0, 146, 0
2, 0, 147, 0
2, 0, 148, 0
2, 0, 149, 0
2, 0, 150, 0
2, 0, 151, 0
2, 0, 152, 0
2, 0, 153, 0
2, 0, 154, 0
2, 0, 155, 0
2, 0, 156, 0
2, 0, 157, 0
2, 0, 158, 0
2, 0, 159, 0
2, 0, 160, 0
2, 0, 161, 0
2, 0, 162, 0
2, 0, 163, 0
2, 0, 164, 0
2, 0, 165, 0
2, 0, 166, 0
2, 0, 167, 0
2, 0, 168, 0
2, 0, 169, 0
3, 0, 0, 0
3, 0, 1, 0
3, 0, 2, 0
3, 0, 3, 0
3, 0, 4, 0
3, 0, 5, 0
3, 0, 6, 0
3, 0, 7, 0
3, 0, 8, 0
3, 0, 9, 0
3, 0, 10, 0
3, 0, 11, 0
3, 0, 12, 0
3, 0, 13, 0
3, 0, 14, 0
3, 0, 15, 0
3, 0, 16, 0
3, 0, 17, 0
3, 0, 18, 0
3, 0, 19, 0
3, 0, 20, 0
3, 0, 21, 0
3, 0, 22, 0
3, 0, 23, 0
3, 0, 24, 0
3, 0, 25, 0
3, 0, 26, 0
3, 0, 27, 0
3, 0, 28, 0
3, 0, 29, 0
3, 0, 30, 0
3, 0, 31, 0
3, 0, 32, 0
3, 0, 33, 0
3, 0, 34, 0
3, 0, 35, 0
3, 0, 36, 0
3, 0, 37, 0
3, 0, 38, 0
3, 0, 39, 0
3, 0, 40, 0
3, 0, 41, 0
3, 0, 42, 0
3, 0, 43, 0
3, 0, 44, 0
3, 0, 45, 0
3, 0, 46, 0
3, 0, 47, 0
3, 0, 48, 0
3, 0, 49, 0
3, 0, 50, 0
3, 0, 51, 0
3, 0, 52, 0
3, 0, 53, 0
3, 0, 54, 0
3, 0, 55, 0
3, 0, 56, 0
3, 0, 57, 0
3, 0, 58, 0
3, 0, 59, 0
3, 0, 60, 0
3, 0, 61, 0
3, 0, 62, 0
3, 0, 63, 0
3, 0, 64, 0
3, 0, 65, 0
3, 0, 66, 0
3, 0, 67, 0
3, 0, 68, 0
3, 0, 69, 0
3, 0, 70, 0
3, 0, 71, 0
3, 0, 72, 0
3, 0, 73, 0
3, 0, 74, 0
3, 0, 75, 0
3, 0, 76, 0
3, 0, 77, 0
3, 0, 78, 0
3, 0, 79, 0
3, 0, 80, 0
3, 0, 81, 0
3, 0, 82, 0
3, 0, 83, 0
3, 0, 84, 0
3, 0, 85, 0
3, 0, 86, 0
3, 0, 87, 0
3, 0, 88, 0
3, 0, 89, 0
3, 0, 90, 0
3, 0, 91, 0
3, 0, 92, 0
3, 0, 93, 0
3, 0, 94, 0
3, 0, 95, 0
3, 0, 96, 0
3, 0, 97, 0
3, 0, 98, 0
3, 0, 99, 0
3, 0, 100, 0
3, 0, 101, 0
3, 0, 102, 0
3, 0, 103, 0
3, 0, 104, 0
3, 0, 105, 0
3, 0, 106, 0
3, 0, 107, 0
3, 0, 108, 0
3, 0, 109, 0
3, 0, 110, 0
3, 0, 111, 0
3, 0, 112, 0
3, 0, 113, 0
3, 0, 114, 0
3, 0, 115, 0
3, 0, 116, 0
3, 0, 117, 0
3, 0, 118, 0
3, 0, 119, 0
3, 0, 120, 0
3, 0, 121, 0
3, 0, 122, 0
3, 0, 123, 0
3, 0, 124, 0
3, 0, 125, 0
3, 0, 126, 0
3, 0, 127, 0
3, 0, 128, 0
3, 0, 129, 0
3, 0, 130, 0
3, 0, 131, 0
3, 0, 132, 0
3, 0, 133, 0
3, 0, 134, 0
3, 0, 135, 0
3, 0, 136, 0
3, 0, 137, 0
3, 0, 138, 0
3, 0, 139, 0
3, 0, 140, 0
3, 0, 141, 0
3, 0, 142, 0
3, 0, 143, 0
3, 0, 144, 0
3, 0, 145, 0
3, 0, 146, 0
3, 0, 147, 0
3, 0, 148, 0
3, 0, 149, 0
3, 0, 150, 0
3, 0, 151, 0
3, 0, 152, 0
3, 0, 153, 0
3, 0, 154, 0
3, 0, 155, 0
3, 0, 156, 0
3, 0, 157, 0
3, 0, 158, 0
3, 0, 159, 0
3, 0, 160, 0
3, 0, 161, 0
3, 0, 162, 0
3, 0, 163, 0
3, 0, 164, 0
3, 0, 165, 0
3, 0, 166, 0
3, 0, 167, 0
3, 0, 168, 0
3, 0, 169, 0
4, 0, 0, 0
4, 0, 1, 0
4, 0, 2, 0
4, 0, 3, 0
4, 0, 4, 0
4, 0, 5, 0
4, 0, 6, 0
4, 0, 7, 0
4, 0, 8, 0
4, 0, 9, 0
4, 0, 10, 0
4, 0, 11, 0
4, 0, 12, 0
4, 0, 13, 0
4, 0, 14, 0
4, 0, 15, 0
4, 0, 16, 0
4, 0, 17, 0
4, 0, 18, 0
4, 0, 19, 0
4, 0, 20, 0
4, 0, 21, 0
4, 0, 22, 0
4, 0, 23, 0
4, 0, 24, 0
4, 0, 25, 0
4, 0, 26, 0
4, 0, 27, 0
4, 0, 28, 0
4, 0, 29, 0
4, 0, 30, 0
4, 0, 31, 0
4, 0, 32, 0
4, 0, 33, 0
4, 0, 34, 0
4, 0, 35, 0
4, 0, 36, 0
4, 0, 37, 0
4, 0, 38, 0
4, 0, 39, 0
4, 0, 40, 0
4, 0, 41, 0
4, 0, 42, 0
4, 0, 43, 0
4, 0, 44, 0
4, 0, 45, 0
4, 0, 46, 0
4, 0, 47, 0
4, 0, 48, 0
4, 0, 49, 0
4, 0, 50, 0
4, 0, 51, 0
4, 0, 52, 0
4, 0, 53, 0
4, 0, 54, 0
4, 0, 55, 0
4, 0, 56, 0
4, 0, 57, 0
4, 0, 58, 0
4, 0, 59, 0
4, 0, 60, 0
4, 0, 61, 0
4, 0, 62, 0
4, 0, 63, 0
4, 0, 64, 0
4, 0, 65, 0
4, 0, 66, 0
4, 0, 67, 0
4, 0, 68, 0
4, 0, 69, 0
4, 0, 70, 0
4, 0, 71, 0
4, 0, 72, 0
4, 0, 73, 0
4, 0, 74, 0
4, 0, 75, 0
4, 0, 76, 0
4, 0, 77, 0
4, 0, 78, 0
4, 0, 79, 0
4, 0, 80, 0
4, 0, 81, 0
4, 0, 82, 0
4, 0, 83, 0
4, 0, 84, 0
4, 0, 85, 0
4, 0, 86, 0
4, 0, 87, 0
4, 0, 88, 0
4, 0, 89, 0
4, 0, 90, 0
4, 0, 91, 0
4, 0, 92, 0
4, 0, 93, 0
4, 0, 94, 0
4, 0, 95, 0
4, 0, 96, 0
4, 0, 97, 0
4, 0, 98, 0
4, 0, 99, 0
4, 0, 100, 0
4, 0, 101, 0
4, 0, 102, 0
4, 0, 103, 0
4, 0, 104, 0
4, 0, 105, 0
4, 0, 106, 0
4, 0, 107, 0
4, 0, 108, 0
4, 0, 109, 0
4, 0, 110, 0
4, 0, 111, 0
4, 0, 112, 0
4, 0, 113, 0
4, 0, 114, 0
4, 0, 115, 0
4, 0, 116, 0
4, 0, 117, 0
4, 0, 118, 0
4, 0, 119, 0
4, 0, 120, 0
4, 0, 121, 0
4, 0, 122, 0
4, 0, 123, 0
4, 0, 124, 0
4, 0, 125, 0
4, 0, 126, 0
4, 0, 127, 0
4, 0, 128, 0
4, 0, 129, 0
4, 0, 130, 0
4, 0, 131, 0
4, 0, 132, 0
4, 0, 133, 0
4, 0, 134, 0
4, 0, 135, 0
4, 0, 136, 0
4, 0, 137, 0
4, 0, 138, 0
4, 0, 139, 0
4, 0, 140, 0
4, 0, 141, 0
4, 0, 142, 0
4, 0, 143, 0
4, 0, 144, 0
4, 0, 145, 0
4, 0, 146, 0
4, 0, 147, 0
4, 0, 148, 0
4, 0, 149, 0
4, 0, 150, 0
4, 0, 151, 0
4, 0, 152, 0
4, 0, 153, 0
4, 0, 154, 0
4, 0, 155, 0
4, 0, 156, 0
4, 0, 157, 0
4, 0, 158, 0
4, 0, 159, 0
4, 0, 160, 0
4, 0, 161, 0
4, 0, 162, 0
4, 0, 163, 0
4, 0, 164, 0
4, 0, 165, 0
4, 0, 166, 0
4, 0, 167, 0
4, 0, 168, 0
4, 0, 169, 0
5, 0, 0, 0
5, 0, 1, 0
5, 0, 2, 0
5, 0, 3, 0
5, 0, 4, 0
5, 0, 5, 0
5, 0, 6, 0
5, 0, 7, 0
5, 0, 8, 0
5, 0, 9, 0
5, 0, 10, 0
5, 0, 11, 0
5, 0, 12, 0
5, 0, 13, 0
5, 0, 14, 0
5, 0, 15, 0
5, 0, 16, 0
5, 0, 17, 0
5, 0, 18, 0
5, 0, 19, 0
5, 0, 20, 0
5, 0, 21, 0
5, 0, 22, 0
5, 0, 23, 0
5, 0, 24, 0
5, 0, 25, 0
5, 0, 26, 0
5, 0, 27, 0
5, 0, 28, 0
5, 0, 29, 0
5, 0, 30, 0
5, 0, 31, 0
5, 0, 32, 0
5, 0, 33, 0
5, 0, 34, 0
5, 0, 35, 0
5, 0, 36, 0
5, 0, 37, 0
5, 0, 38, 0
5, 0, 39, 0
5, 0, 40, 0
5, 0, 41, 0
5, 0, 42, 0
5, 0, 43, 0
5, 0, 44, 0
5, 0, 45, 0
5, 0, 46, 0
5, 0, 47, 0
5, 0, 48, 0
5, 0, 49, 0
5, 0, 50, 0
5, 0, 51, 0
5, 0, 52, 0
5, 0, 53, 0
5, 0, 54, 0
5, 0, 55, 0
5, 0, 56, 0
5, 0, 57, 0
5, 0, 58, 0
5, 0, 59, 0
5, 0, 60, 0
5, 0, 61, 0
5, 0, 62, 0
5, 0, 63, 0
5, 0, 64, 0
5, 0, 65, 0
5, 0, 66, 0
5, 0, 67, 0
5, 0, 68, 0
5, 0, 69, 0
5, 0, 70, 0
5, 0, 71, 0
5, 0, 72, 0
5, 0, 73, 0
5, 0, 74, 0
5, 0, 75, 0
5, 0, 76, 0
5, 0, 77, 0
5, 0, 78, 0
5, 0, 79, 0
5, 0, 80, 0
5, 0, 81, 0
5, 0, 82, 0
5, 0, 83, 1.13563339709799e-06
5, 0, 84, 1.122127628150338e-06
5, 0, 85, 0
5, 0, 86, 0
5, 0, 87, 0
5, 0, 88, 0
5, 0, 89, 0
5, 0, 90, 0
5, 0, 91, 0
5, 0, 92, 0
5, 0, 93, 0
5, 0, 94, 0
5, 0, 95, 0
5, 0, 96, 0
5, 0, 97, 0
5, 0, 98, 0
5, 0, 99, 0
5, 0, 100, 0
5, 0, 101, 0
5, 0, 102, 0
5, 0, 103, 0
5, 0, 104, 0
5, 0, 105, 0
5, 0, 106, 0
5, 0, 107, 0
5, 0, 108, 0
5, 0, 109, 0
5, 0, 110, 0
5, 0, 111, 0
5, 0, 112, 0
5, 0, 113, 0
5, 0, 114, 0
5, 0, 115, 0
5, 0, 116, 0
5, 0, 117, 0
5, 0, 118, 0
5, 0, 119, 0
5, 0, 120, 0
5, 0, 121, 0
5, 0, 122, 0
5, 0, 123, 0
5, 0, 124, 0
5, 0, 125, 0
5, 0, 126, 0
5, 0, 127, 0
5, 0, 128, 0
5, 0, 129, 0
5, 0, 130, 0
5, 0, 131, 0
5, 0, 132, 0
5, 0, 133, 0
5, 0, 134, 0
5, 0, 135, 0
5, 0, 136, 0
5, 0, 137, 0
5, 0, 138, 0
5, 0, 139, 0
5, 0, 140, 0
5, 0, 141, 0
5, 0, 142, 0
5, 0, 143, 0
5, 0, 144, 0
5, 0, 145, 0
5, 0, 146, 0
5, 0, 147, 0
5, 0, 148, 0
5, 0, 149, 0
5, 0, 150, 0
5, 0, 151, 0
5, 0, 152, 0
5, 0, 153, 0
5, 0, 154, 0
5, 0, 155, 0
5, 0, 156, 0
5, 0, 157, 0
5, 0, 158, 0
5, 0, 159, 0
5, 0, 160, 0
5, 0, 161, 0
5, 0, 162, 0
5, 0, 163, 0
5, 0, 164, 0
5, 0, 165, 0
5, 0, 166, 0
5, 0, 167, 0
5, 0, 168, 0
5, 0, 169, 0
6, 0, 0, 0
6, 0, 1, 0
6, 0, 2, 0
6, 0, 3, 0
6, 0, 4, 0
6, 0, 5, 0
6, 0, 6, 0
6, 0, 7, 0
6, 0, 8, 0
6, 0, 9, 0
6, 0, 10, 0
6, 0, 11, 0
6, 0, 12, 0
6, 0, 13, 0
6, 0, 14, 0
6, 0, 15, 0
6, 0, 16, 0
6, 0, 17, 0
6, 0, 18, 0
6, 0, 19, 0
6, 0, 20, 0
6, 0, 21, 0
6, 0, 22, 0
6, 0, 23, 0
6, 0, 24, 0
6, 0, 25, 0
6, 0, 26, 0
6, 0, 27, 0
6, 0, 28, 0
6, 0, 29, 0
6, 0, 30, 0
6, 0, 31, 0
6, 0, 32, 0
6, 0, 33, 0
6, 0, 34, 0
6, 0, 35, 0
6, 0, 36, 0
6, 0, 37, 0
6, 0, 38, 0
6, 0, 39, 0
6, 0, 40, 0
6, 0, 41, 0
6, 0, 42, 0
6, 0, 43, 0
6, 0, 44, 0
6, 0, 45, 0
6, 0, 46, 0
6, 0, 47, 0
6, 0, 48, 0
6, 0, 49, 0
6, 0, 50, 0
6, 0, 51, 0
6, 0, 52, 0
6, 0, 53, 0
6, 0, 54, 0
6, 0, 55, 0
6, 0, 56, 0
6, 0, 57, 0
6, 0, 58, 0
6, 0, 59, 0
6, 0, 60, 0
6, 0, 61, 0
6, 0, 62, 0
6, 0, 63, 0
6, 0, 64, 0
6, 0, 65, 0
6, 0, 66, 0
6, 0, 67, 0
6, 0, 68, 0
6, 0, 69, 0
6, 0, 70, 0
6, 0, 71, 0
6, 0, 72, 0
6, 0, 73, 0
6, 0, 74, 0
6, 0, 75, 0
6, 0, 76, 0
6, 0, 77, 0
6, 0, 78, 1.030226712828153e-06
6, 0, 79, 1.721114358588238e-06
6, 0, 80, 2.064565705950372e-06
6, 0, 81, 2.387155063843238e-06
6, 0, 82, 2.913239995905315e-06
6, 0, 83, 4.170670308667468e-06
6, 0, 84, 0
6, 0, 85, 0
6, 0, 86, 0
6, 0, 87, 0
6, 0, 88, 0
6, 0, 89, 0
6, 0, 90, 0
6, 0, 91, 0
6, 0, 92, 0
6, 0, 93, 0
6, 0, 94, 0
6, 0, 95, 0
6, 0, 96, 0
6, 0, 97, 0
6, 0, 98, 0
6, 0, 99, 0
6, 0, 100, 0
6, 0, 101, 0
6, 0, 102, 0
6, 0, 103, 0
6, 0, 104, 0
6, 0, 105, 0
6, 0, 106, 0
6, 0, 107, 0
6, 0, 108, 0
6, 0, 109, 0
6, 0, 110, 0
6, 0, 111, 0
6, 0, 112, 0
6, 0, 113, 0
6, 0, 114, 0
6, 0, 115, 0
6, 0, 116, 0
6, 0, 117, 0
6, 0, 118, 0
6, 0, 119, 0
6, 0, 120, 0
6, 0, 121, 0
6, 0, 122, 0
6, 0, 123, 0
6, 0, 124, 0
6, 0, 125, 0
6, 0, 126, 0
6, 0, 127, 0
6, 0, 128, 0
6, 0, 129, 0
6, 0, 130, 0
6, 0, 131, 0
6, 0, 132, 0
6, 0, 133, 0
6, 0, 134, 0
6, 0, 135, 0
6, 0, 136, 0
6, 0, 137, 0
6, 0, 138, 0
6, 0, 139, 0
6, 0, 140, 0
6, 0, 141, 0
6, 0, 142, 0
6, 0, 143, 0
6, 0, 144, 0
6, 0, 145, 0
6, 0, 146, 0
6, 0, 147, 0
6, 0, 148, 0
6, 0, 149, 0
6, 0, 150, 0
6, 0, 151, 0
6, 0, 152, 0
6, 0, 153, 0
6, 0, 154, 0
6, 0, 155, 0
6, 0, 156, 0
6, 0, 157, 0
6, 0, 158, 0
6, 0, 159, 0
6, 0, 160, 0
6, 0, 161, 0
6, 0, 162, 0
6, 0, 163, 0
6, 0, 164, 0
6, 0, 165, 0
6, 0, 166, 0
6, 0, 167, 0
6, 0, 168, 0
6, 0, 169, 0
7, 0, 0, 0
7, 0, 1, 0
7, 0, 2, 0
7, 0, 3, 0
7, 0, 4, 0
7, 0, 5, 0
7, 0, 6, 0
7, 0, 7, 0
7, 0, 8, 0
7, 0, 9, 0
7, 0, 10, 0
7, 0, 11, 0
7, 0, 12, 0
7, 0, 13, 0
7, 0, 14, 0
7, 0, 15, 0
7, 0, 16, 0
7, 0, 17, 0
7, 0, 18, 0
7, 0, 19, 0
7, 0, 20, 0
7, 0, 21, 0
7, 0, 22, 0
7, 0, 23, 0
7, 0, 24, 0
7, 0, 25, 0
7, 0, 26, 0
7, 0, 27, 0
7, 0, 28, 0
7, 0, 29, 0
7, 0, 30, 0
7, 0, 31, 0
7, 0, 32, 0
7, 0, 33, 0
7, 0, 34, 0
7, 0, 35, 0
7, 0, 36, 0
7, 0, 37, 0
7, 0, 38, 0
7, 0, 39, 0
7, 0, 40, 0
7, 0, 41, 0
7, 0, 42, 0
7, 0, 43, 0
7, 0, 44, 0
7, 0, 45, 0
7, 0, 46, 0
7, 0, 47, 0
7, 0, 48, 0
7, 0, 49, 0
7, 0, 50, 0
7, 0, 51, 0
7, 0, 52, 0
7, 0, 53, 0
7, 0, 54, 0
7, 0, 55, 0
7, 0, 56, 0
7, 0, 57, 0
7, 0, 58, 0
7, 0, 59, 0
7, 0, 60, 0
7, 0, 61, 0
7, 0, 62, 0
7, 0, 63, 0
7, 0, 64, 0
7, 0, 65, 0
7, 0, 66, 0
7, 0, 67, 0
7, 0, 68, 0
7, 0, 69, 0
7, 0, 70, 0
7, 0, 71, 8.51128106660326e-07
7, 0, 72, 1.221581101162883e-06
7, 0, 73, 1.111381948248891e-06
7, 0, 74, 1.438437834622164e-06
7, 0, 75, 1.38583754960564e-06
7, 0, 76, 1.592123453519889e-06
7, 0, 77, 1.551498030494258e-06
7, 0, 78, 6.218822932169132e-07
7, 0, 79, 0
7, 0, 80, 0
7, 0, 81, 0
7, 0, 82, 0
7, 0, 83, 0
7, 0, 84, 0
7, 0, 85, 0
7, 0, 86, 0
7, 0, 87, 0
7, 0, 88, 0
7, 0, 89, 0
7, 0, 90, 0
7, 0, 91, 0
7, 0, 92, 0
7, 0, 93, 0
7, 0, 94, 0
7, 0, 95, 0
7, 0, 96, 0
7, 0, 97, 0
7, 0, 98, 0
7, 0, 99, 0
7, 0, 100, 0
7, 0, 101, 0
7, 0, 102, 0
7, 0, 103, 0
7, 0, 104, 0
7, 0, 105, 0
7, 0, 106, 0
7, 0, 107, 0
7, 0, 108, 0
7, 0, 109, 0
7, 0, 110, 0
7, 0, 111, 0
7, 0, 112, 0
7, 0, 113, 0
7, 0, 114, 0
7, 0, 115, 0
7, 0, 116, 0
7, 0, 117, 0
7, 0, 118, 0
7, 0, 119, 0
7, 0, 120, 0
7, 0, 121, 0
7, 0, 122, 0
7, 0, 123, 0
7, 0, 124, 0
7, 0, 125, 0
7, 0, 126, 0
7, 0, 127, 0
7, 0, 128, 0
7, 0, 129, 0
7, 0, 130, 0
7, 0, 131, 0
7, 0, 132, 0
7, 0, 133, 0
7, 0, 134, 0
7, 0, 135, 0
7, 0, 136, 0
7, 0, 137, 0
7, 0, 138, 0
7, 0, 139, 0
7, 0, 140, 0
7, 0, 141, 0
7, 0, 142, 0
7, 0, 143, 0
7, 0, 144, 0
7, 0, 145, 0
7, 0, 146, 0
7, 0, 147, 0
7, 0, 148, 0
7, 0, 149, 0
7, 0, 150, 0
7, 0, 151, 0
7, 0, 152, 0
7, 0, 153, 0
7, 0, 154, 0
7, 0, 155, 0
7, 0, 156, 0
7, 0, 157, 0
7, 0, 158, 0
7, 0, 159, 0
7, 0, 160, 0
7, 0, 161, 0
7, 0, 162, 0
7, 0, 163, 0
7, 0, 164, 0
7, 0, 165, 0
7, 0, 166, 0
7, 0, 167, 0
7, 0, 168, 0
7, 0, 169, 0
8, 0, 0, 0
8, 0, 1, 0
8, 0, 2, 0
8, 0, 3, 0
8, 0, 4, 0
8, 0, 5, 0
8, 0, 6, 0
8, 0, 7, 0
8, 0, 8, 0
8, 0, 9, 0
8, 0, 10, 0
8, 0, 11, 0
8, 0, 12, 0
8, 0, 13, 0
8, 0, 14, 0
8, 0, 15, 0
8, 0, 16, 0
8, 0, 17, 0
8, 0, 18, 0
8, 0, 19, 0
8, 0, 20, 0
8, 0, 21, 0
8, 0, 22, 0
8, 0, 23, 0
8, 0, 24, 0
8, 0, 25, 0
8, 0, 26, 0
8, 0, 27, 0
8, 0, 28, 0
8, 0, 29, 0
8, 0, 30, 0
8, 0, 31, 0
8, 0, 32, 0
8, 0, 33, 0
8, 0, 34, 0
8, 0, 35, 0
8, 0, 36, 0
8, 0, 37, 0
8, 0, 38, 0
8, 0, 39, 0
8, 0, 40, 0
8, 0, 41, 0
8, 0, 42, 0
8, 0, 43, 0
8, 0, 44, 0
8, 0, 45, 0
8, 0, 46, 0
8, 0, 47, 0
8, 0, 48, 0
8, 0, 49, 0
8, 0, 50, 0
8, 0, 51, 0
8, 0, 52, 0
8, 0, 53, 0
8, 0, 54, 0
8, 0, 55, 0
8, 0, 56, 0
8, 0, 57, 0
8, 0, 58, 0
8, 0, 59, 0
8, 0, 60, 0
8, 0, 61, 0
8, 0, 62, 0
8, 0, 63, 0
8, 0, 64, 3.082049317981728e-07
8, 0, 65, 9.856520364337484e-07
8, 0, 66, 1.016236183204455e-06
8, 0, 67, 1.077814658856369e-06
8, 0, 68, 1.050566083904414e-06
8, 0, 69, 1.163526121672476e-06
8, 0, 70, 1.079356138689036e-06
8, 0, 71, 3.54292325255301e-07
8, 0, 72, 0
8, 0, 73, 0
8, 0, 74, 0
8, 0, 75, 0
8, 0, 76, 0
8, 0, 77, 0
8, 0, 78, 0
8, 0, 79, 0
8, 0, 80, 0
8, 0, 81, 0
8, 0, 82, 0
8, 0, 83, 0
8, 0, 84, 0
8, 0, 85, 0
8, 0, 86, 0
8, 0, 87, 0
8, 0, 88, 0
8, 0, 89, 0
8, 0, 90, 0
8, 0, 91, 0
8, 0, 92, 0
8, 0, 93, 0
8, 0, 94, 0
8, 0, 95, 0
8, 0, 96, 0
8, 0, 97, 0
8, 0, 98, 0
8, 0, 99, 0
8, 0, 100, 0
8, 0, 101, 0
8, 0, 102, 0
8, 0, 103, 0
8, 0, 104, 0
8, 0, 105, 0
8, 0, 106, 0
8, 0, 107, 0
8, 0, 108, 0
8, 0, 109, 0
8, 0, 110, 0
8, 0, 111, 0
8, 0, 112, 0
8, 0, 113, 0
8, 0, 114, 0
8, 0, 115, 0
8, 0, 116, 0
8, 0, 117, 0
8, 0, 118, 0
8, 0, 119, 0
8, 0, 120, 0
8, 0, 121, 0
8, 0, 122, 0
8, 0, 123, 0
8, 0, 124, 0
8, 0, 125, 0
8, 0, 126, 0
8, 0, 127, 0
8, 0, 128, 0
8, 0, 129, 0
8, 0, 130, 0
8, 0, 131, 0
8, 0, 132, 0
8, 0, 133, 0
8, 0, 134, 0
8, 0, 135, 0
8, 0, 136, 0
8, 0, 137, 0
8, 0, 138, 0
8, 0, 139, 0
8, 0, 140, 0
8, 0, 141, 0
8, 0, 142, 0
8, 0, 143, 0
8, 0, 144, 0
8, 0, 145, 0
8, 0, 146, 0
8, 0, 147, 0
8, 0, 148, 0
8, 0, 149, 0
8, 0, 150, 0
8, 0, 151, 0
8, 0, 152, 0
8, 0, 153, 0
8, 0, 154, 0
8, 0, 155, 0
8, 0, 156, 0
8, 0, 157, 0
8, 0, 158, 0
8, 0, 159, 0
8, 0, 160, 0
8, 0, 161, 0
8, 0, 162, 0
8, 0, 163, 0
8, 0, 164, 0
8, 0, 165, 0
8, 0, 166, 0
8, 0, 167, 0
8, 0, 168, 0
8, 0, 169, 0
9, 0, 0, 0
9, 0, 1, 0
9, 0, 2, 0
9, 0, 3, 0
9, 0, 4, 0
9, 0, 5, 0
9, 0, 6, 0
9, 0, 7, 0
9, 0, 8, 0
9, 0, 9, 0
9, 0, 10, 0
9, 0, 11, 0
9, 0, 12, 0
9, 0, 13, 0
9, 0, 14, 0
9, 0, 15, 0
9, 0, 16, 0
9, 0, 17, 0
9, 0, 18, 0
9, 0, 19, 0
9, 0, 20, 0
9, 0, 21, 0
9, 0, 22, 0
9, 0, 23, 0
9, 0, 24, 0
9, 0, 25, 0
9, 0, 26, 0
9, 0, 27, 0
9, 0, 28, 0
9, 0, 29, 0
9, 0, 30, 0
9, 0, 31, 0
9, 0, 32, 0
9, 0, 33, 0
9, 0, 34, 0
9, 0, 35, 0
9, 0, 36, 0
9, 0, 37, 0
9, 0, 38, 0
9, 0, 39, 0
9, 0, 40, 0
9, 0, 41, 0
9, 0, 42, 0
9, 0, 43, 0
9, 0, 44, 0
9, 0, 45, 0
9, 0, 46, 0
9, 0, 47, 0
9, 0, 48, 0
9, 0, 49, 0
9, 0, 50, 0
9, 0, 51, 0
9, 0, 52, 0
9, 0, 53, 0
9, 0, 54, 0
9, 0, 55, 0
9, 0, 56, 0
9, 0, 57, 0
9, 0, 58, 5.083513201498135e-07
9, 0, 59, 8.841650469548767e-07
9, 0, 60, 1.0113089956576e-06
9, 0, 61, 8.691670814187091e-07
9, 0, 62, 8.231652941503853e-07
9, 0, 63, 9.07618300516333e-07
9, 0, 64, 6.086204393795924e-07
9, 0, 65, 0
9, 0, 66, 0
9, 0, 67, 0
9, 0, 68, 0
9, 0, 69, 9.241318252861674e-07
9, 0, 70, 1.081904088096053e-06
9, 0, 71, 1.275925114896381e-06
9, 0, 72, 1.367211893921194e-06
9, 0, 73, 1.373981831420679e-06
9, 0, 74, 1.374331759507186e-06
9, 0, 75, 1.528483039692219e-06
9, 0, 76, 1.551091600049403e-06
9, 0, 77, 1.822862941480707e-06
9, 0, 78, 1.806139835025533e-06
9, 0, 79, 2.089739609800745e-06
9, 0, 80, 2.637599436638993e-06
9, 0, 81, 3.345420509504038e-06
9, 0, 82, 4.601496584655251e-06
9, 0, 83, 0
9, 0, 84, 0
9, 0, 85, 0
9, 0, 86, 0
9, 0, 87, 0
9, 0, 88, 0
9, 0, 89, 0
9, 0, 90, 0
9, 0, 91, 0
9, 0, 92, 0
9, 0, 93, 0
9, 0, 94, 0
9, 0, 95, 0
9, 0, 96, 0
9, 0, 97, 0
9, 0, 98, 0
9, 0, 99, 0
9, 0, 100, 0
9, 0, 101, 0
9, 0, 102, 0
9, 0, 103, 0
9, 0, 104, 0
9, 0, 105, 0
9, 0, 106, 0
9, 0, 107, 0
9, 0, 108, 0
9, 0, 109, 0
9, 0, 110, 0
9, 0, 111, 0
9, 0, 112, 0
9, 0, 113, 0
9, 0, 114, 0
9, 0, 115, 0
9, 0, 116, 0
9, 0, 117, 0
9, 0, 118, 0
9, 0, 119, 0
9, 0, 120, 0
9, 0, 121, 0
9, 0, 122, 0
9, 0, 123, 0
9, 0, 124, 0
9, 0, 125, 0
9, 0, 126, 0
9, 0, 127, 0
9, 0, 128, 0
9, 0, 129, 0
9, 0, 130, 0
9, 0, 131, 0
9, 0, 132, 0
9, 0, 133, 0
9, 0, 134, 0
9, 0, 135, 0
9, 0, 136, 0
9, 0, 137, 0
9, 0, 138, 0
9, 0, 139, 0
9, 0, 140, 0
9, 0, 141, 0
9, 0, 142, 0
9, 0, 143, 0
9, 0, 144, 0
9, 0, 145, 0
9, 0, 146, 0
9, 0, 147, 0
9, 0, 148, 0
9, 0, 149, 0
9, 0, 150, 0
9, 0, 151, 0
9, 0, 152, 0
9, 0, 153, 0
9, 0, 154, 0
9, 0, 155, 0
9, 0, 156, 0
9, 0, 157, 0
9, 0, 158, 0
9, 0, 159, 0
9, 0, 160, 0
9, 0, 161, 0
9, 0, 162, 0
9, 0, 163, 0
9, 0, 164, 0
9, 0, 165, 0
9, 0, 166, 0
9, 0, 167, 0
9, 0, 168, 0
9, 0, 169, 0
10, 0, 0, 0
10, 0, 1, 0
10, 0, 2, 0
10, 0, 3, 0
10, 0, 4, 0
10, 0, 5, 0
10, 0, 6, 0
10, 0, 7, 0
10, 0, 8, 0
10, 0, 9, 0
10, 0, 10, 0
10, 0, 11, 0
10, 0, 12, 0
10, 0, 13, 0
10, 0, 14, 0
10, 0, 15, 0
10, 0, 16, 0
10, 0, 17, 0
10, 0, 18, 0
10, 0, 19, 0
10, 0, 20, 0
10, 0, 21, 0
10, 0, 22, 0
10, 0, 23, 0
10, 0, 24, 0
10, 0, 25, 0
10, 0, 26, 0
10, 0, 27, 0
10, 0, 28, 0
10, 0, 29, 0
10, 0, 30, 0
10, 0, 31, 0
10, 0, 32, 0
10, 0, 33, 0
10, 0, 34, 0
10, 0, 35, 0
10, 0, 36, 0
10, 0, 37, 0
10, 0, 38, 0
10, 0, 39, 0
10, 0, 40, 0
10, 0, 41, 0
10, 0, 42, 0
10, 0, 43, 0
10, 0, 44, 0
10, 0, 45, 0
10, 0, 46, 0
10, 0, 47, 0
10, 0, 48, 0
10, 0, 49, 7.276726137206424e-07
10, 0, 50, 1.188607370750105e-06
10, 0, 51, 1.799811229830084e-06
10, 0, 52, 1.795754997147014e-06
10, 0, 53, 1.139974415309553e-06
10, 0, 54, 9.998562973123626e-07
10, 0, 55, 7.197050990725984e-07
10, 0, 56, 9.292923550674459e-07
10, 0, 57, 1.664538444856589e-06
10, 0, 58, 1.247803993464913e-06
10, 0, 59, 8.684954195814498e-07
10, 0, 60, 9.871446309261955e-07
10, 0, 61, 9.503970090918301e-07
10, 0, 62, 8.061311405072047e-07
10, 0, 63, 1.053778191817401e-06
10, 0, 64, 1.004330897558248e-06
10, 0, 65, 1.094513663701946e-06
10, 0, 66, 1.008764911603066e-06
10, 0, 67, 1.132370925915893e-06
10, 0, 68, 1.115506279347755e-06
10, 0, 69, 1.581813933171361e-07
10, 0, 70, 0
10, 0, 71, 0
10, 0, 72, 0
10, 0, 73, 0
10, 0, 74, 0
10, 0, 75, 0
10, 0, 76, 0
10, 0, 77, 0
10, 0, 78, 0
10, 0, 79, 0
10, 0, 80, 0
10, 0, 81, 0
10, 0, 82, 0
10, 0, 83, 0
10, 0, 84, 0
10, 0, 85, 0
10, 0, 86, 0
10, 0, 87, 0
10, 0, 88, 0
10, 0, 89, 0
10, 0, 90, 0
10, 0, 91, 0
10, 0, 92, 0
10, 0, 93, 0
10, 0, 94, 0
10, 0, 95, 0
10, 0, 96, 0
10, 0, 97, 0
10, 0, 98, 0
10, 0, 99, 0
10, 0, 100, 0
10, 0, 101, 0
10, 0, 102, 0
10, 0, 103, 0
10, 0, 104, 0
10, 0, 105, 0
10, 0, 106, 0
10, 0, 107, 0
10, 0, 108, 0
10, 0, 109, 0
10, 0, 110, 0
10, 0, 111, 0
10, 0, 112, 0
10, 0, 113, 0
10, 0, 114, 0
10, 0, 115, 0
10, 0, 116, 0
10, 0, 117, 0
10, 0, 118, 0
10, 0, 119, 0
10, 0, 120, 0
10, 0, 121, 0
10, 0, 122, 0
10, 0, 123, 0
10, 0, 124, 0
10, 0, 125, 0
10, 0, 126, 0
10, 0, 127, 0
10, 0, 128, 0
10, 0, 129, 0
10, 0, 130, 0
10, 0, 131, 0
10, 0, 132, 0
10, 0, 133, 0
10, 0, 134, 0
10, 0, 135, 0
10, 0, 136, 0
10, 0, 137, 0
10, 0, 138, 0
10, 0, 139, 0
10, 0, 140, 0
10, 0, 141, 0
10, 0, 142, 0
10, 0, 143, 0
10, 0, 144, 0
10, 0, 145, 0
10, 0, 146, 5.096803192827792e-07
10, 0, 147, 8.278190648525197e-07
10, 0, 148, 8.053024771470518e-07
10, 0, 149, 6.736161708431609e-07
10, 0, 150, 7.081931698849075e-07
10, 0, 151, 8.132848279274185e-07
10, 0, 152, 8.203153925023798e-07
10, 0, 153, 8.566031510781613e-07
10, 0, 154, 8.177609629456128e-07
10, 0, 155, 7.943670539134473e-07
10, 0, 156, 8.465855216854834e-07
10, 0, 157, 7.864015856284823e-07
10, 0, 158, 8.886677278496791e-07
10, 0, 159, 9.625484835851239e-07
10, 0, 160, 9.927216524374671e-07
10, 0, 161, 9.543930445943261e-07
10, 0, 162, 8.474820560877561e-07
10, 0, 163, 1.056803967003361e-06
10, 0, 164, 9.732332273415523e-07
10, 0, 165, 1.092956267711997e-06
10, 0, 166, 8.813753993308637e-07
10, 0, 167, 1.228973019351542e-06
10, 0, 168, 1.097587414733425e-06
10, 0, 169, 1.265970809072314e-06
11, 0, 0, 0
11, 0, 1, 0
11, 0, 2, 0
11, 0, 3, 0
11, 0, 4, 0
11, 0, 5, 0
11, 0, 6, 0
11, 0, 7, 0
11, 0, 8, 0
11, 0, 9, 0
11, 0, 10, 0
11, 0, 11, 0
11, 0, 12, 0
11, 0, 13, 0
11, 0, 14, 0
11, 0, 15, 0
11, 0, 16, 0
11, 0, 17, 0
11, 0, 18, 0
11, 0, 19, 0
11, 0, 20, 0
11, 0, 21, 0
11, 0, 22, 0
11, 0, 23, 0
11, 0, 24, 0
11, 0, 25, 0
11, 0, 26, 0
11, 0, 27, 0
11, 0, 28, 0
11, 0, 29, 0
11, 0, 30, 0
11, 0, 31, 0
11, 0, 32, 0
11, 0, 33, 0
11, 0, 34, 0
11, 0, 35, 0
11, 0, 36, 0
11, 0, 37, 0
11, 0, 38, 1.462665721874146e-07
11, 0, 39, 8.426252975368698e-07
11, 0, 40, 9.099570661419421e-07
11, 0, 41, 1.486792825744487e-06
11, 0, 42, 1.531582370262186e-06
11, 0, 43, 1.282274524783134e-06
11, 0, 44, 1.47479124734673e-06
11, 0, 45, 1.770790277078049e-06
11, 0, 46, 2.231519601991749e-06
11, 0, 47, 2.592488499431056e-06
11, 0, 48, 2.250440502393758e-06
11, 0, 49, 1.542348513794423e-06
11, 0, 50, 1.354240794171346e-06
11, 0, 51, 6.877317559883522e-07
11, 0, 52, 9.549232800054597e-07
11, 0, 53, 6.884487220304436e-07
11, 0, 54, 7.541834747826215e-07
11, 0, 55, 8.109601026262681e-07
11, 0, 56, 6.613527716581302e-07
11, 0, 57, 0
11, 0, 58, 0
11, 0, 59, 0
11, 0, 60, 0
11, 0, 61, 0
11, 0, 62, 0
11, 0, 63, 0
11, 0, 64, 0
11, 0, 65, 0
11, 0, 66, 0
11, 0, 67, 0
11, 0, 68, 0
11, 0, 69, 0
11, 0, 70, 0
11, 0, 71, 0
11, 0, 72, 0
11, 0, 73, 0
11, 0, 74, 0
11, 0, 75, 0
11, 0, 76, 0
11, 0, 77, 0
11, 0, 78, 0
11, 0, 79, 0
11, 0, 80, 0
11, 0, 81, 0
11, 0, 82, 0
11, 0, 83, 0
11, 0, 84, 0
11, 0, 85, 0
11, 0, 86, 0
11, 0, 87, 0
11, 0, 88, 0
11, 0, 89, 0
11, 0, 90, 0
11, 0, 91, 0
11, 0, 92, 0
11, 0, 93, 0
11, 0, 94, 0
11, 0, 95, 0
11, 0, 96, 0
11, 0, 97, 0
11, 0, 98, 0
11, 0, 99, 0
11, 0, 100, 0
11, 0, 101, 0
11, 0, 102, 0
11, 0, 103, 0
11, 0, 104, 0
11, 0, 105, 0
11, 0, 106, 0
11, 0, 107, 0
11, 0, 108, 0
11, 0, 109, 0
11, 0, 110, 0
11, 0, 111, 0
11, 0, 112, 0
11, 0, 113, 0
11, 0, 114, 0
11, 0, 115, 0
11, 0, 116, 0
11, 0, 117, 0
11, 0, 118, 0
11, 0, 119, 0
11, 0, 120, 0
11, 0, 121, 0
11, 0, 122, 0
11, 0, 123, 0
11, 0, 124, 0
11, 0, 125, 0
11, 0, 126, 0
11, 0, 127, 3.266932253609411e-07
11, 0, 128, 5.993161948936176e-07
11, 0, 129, 6.423350100703829e-07
11, 0, 130, 4.990504294255516e-07
11, 0, 131, 5.559612645811285e-07
11, 0, 132, 5.840277026436524e-07
11, 0, 133, 6.005788009133539e-07
11, 0, 134, 6.633834459535137e-07
11, 0, 135, 7.193727924459381e-07
11, 0, 136, 6.341077209981449e-07
11, 0, 137, 6.743964604538633e-07
11, 0, 138, 8.596871339250356e-07
11, 0, 139, 7.122843612705765e-07
11, 0, 140, 7.707027975811798e-07
11, 0, 141, 7.783148703310871e-07
11, 0, 142, 7.443402978424274e-07
11, 0, 143, 7.034831810415199e-07
11, 0, 144, 6.902769200678449e-07
11, 0, 145, 8.5164185747999e-07
11, 0, 146, 1.863899541376668e-07
11, 0, 147, 0
11, 0, 148, 0
11, 0, 149, 0
11, 0, 150, 0
11, 0, 151, 0
11, 0, 152, 0
11, 0, 153, 0
11, 0, 154, 0
11, 0, 155, 0
11, 0, 156, 0
11, 0, 157, 0
11, 0, 158, 0
11, 0, 159, 0
11, 0, 160, 0
11, 0, 161, 0
11, 0, 162, 0
11, 0, 163, 0
11, 0, 164, 0
11, 0, 165, 0
11, 0, 166, 0
11, 0, 167, 0
11, 0, 168, 0
11, 0, 169, 0
12, 0, 0, 0
12, 0, 1, 0
12, 0, 2, 0
12, 0, 3, 0
12, 0, 4, 0
12, 0, 5, 0
12, 0, 6, 0
12, 0, 7, 0
12, 0, 8, 0
12, 0, 9, 0
12, 0, 10, 0
12, 0, 11, 0
12, 0, 12, 0
12, 0, 13, 0
12, 0, 14, 0
12, 0, 15, 0
12, 0, 16, 0
12, 0, 17, 0
12, 0, 18, 0
12, 0, 19, 0
12, 0, 20, 0
12, 0, 21, 0
12, 0, 22, 0
12, 0, 23, 0
12, 0, 24, 0
12, 0, 25, 0
12, 0, 26, 0
12, 0, 27, 0
12, 0, 28, 0
12, 0, 29, 1.919746068779205e-07
12, 0, 30, 8.059074048105686e-07
12, 0, 31, 1.48459719184757e-06
12, 0, 32, 1.217832618749526e-06
12, 0, 33, 1.27340933886444e-06
12, 0, 34, 1.286340420847409e-06
12, 0, 35, 1.314124233431357e-06
12, 0, 36, 1.445875795980101e-06
12, 0, 37, 1.934312422235962e-06
12, 0, 38, 1.710171773083857e-06
12, 0, 39, 1.527100835119199e-06
12, 0, 40, 1.264521188204526e-06
12, 0, 41, 6.79068023146101e-07
12, 0, 42, 6.792117801524e-07
12, 0, 43, 5.99536178924609e-07
12, 0, 44, 8.045091703934304e-07
12, 0, 45, 3.757424167361023e-07
12, 0, 46, 0
12, 0, 47, 0
12, 0, 48, 0
12, 0, 49, 0
12, 0, 50, 0
12, 0, 51, 0
12, 0, 52, 0
12, 0, 53, 0
12, 0, 54, 0
12, 0, 55, 0
12, 0, 56, 0
12, 0, 57, 0
12, 0, 58, 0
12, 0, 59, 0
12, 0, 60, 0
12, 0, 61, 0
12, 0, 62, 0
12, 0, 63, 0
12, 0, 64, 0
12, 0, 65, 0
12, 0, 66, 0
12, 0, 67, 0
12, 0, 68, 0
12, 0, 69, 0
12, 0, 70, 0
12, 0, 71, 0
12, 0, 72, 0
12, 0, 73, 0
12, 0, 74, 0
12, 0, 75, 0
12, 0, 76, 0
12, 0, 77, 0
12, 0, 78, 0
12, 0, 79, 0
12, 0, 80, 0
12, 0, 81, 0
12, 0, 82, 0
12, 0, 83, 0
12, 0, 84, 0
12, 0, 85, 0
12, 0, 86, 0
12, 0, 87, 0
12, 0, 88, 0
12, 0, 89, 0
12, 0, 90, 0
12, 0, 91, 0
12, 0, 92, 0
12, 0, 93, 0
12, 0, 94, 0
12, 0, 95, 0
12, 0, 96, 0
12, 0, 97, 0
12, 0, 98, 0
12, 0, 99, 0
12, 0, 100, 0
