# TOPAS Version: 3.6.p1
# Parameter File: mini_SOBPprova.txt
# Results for scorer MyScorer
# Scored in component: PVT/big
# X in 161 bins of 0.0063354 cm
# Y in 1 bin  of 1.18 cm
# Z in 200 bins of 0.02 cm
# DoseToWater ( Gy ) : Sum   
0, 0, 0, 0
0, 0, 1, 0
0, 0, 2, 0
0, 0, 3, 1.426604683274491e-07
0, 0, 4, 4.36515023238826e-07
0, 0, 5, 3.312784713216388e-07
0, 0, 6, 4.492994207794254e-07
0, 0, 7, 2.343358858070133e-07
0, 0, 8, 0
0, 0, 9, 0
0, 0, 10, 0
0, 0, 11, 0
0, 0, 12, 0
0, 0, 13, 0
0, 0, 14, 0
0, 0, 15, 0
0, 0, 16, 0
0, 0, 17, 0
0, 0, 18, 0
0, 0, 19, 0
0, 0, 20, 0
0, 0, 21, 0
0, 0, 22, 0
0, 0, 23, 0
0, 0, 24, 0
0, 0, 25, 0
0, 0, 26, 0
0, 0, 27, 1.728437126757854e-07
0, 0, 28, 1.189798808809428e-06
0, 0, 29, 1.426056428499578e-06
0, 0, 30, 6.192034334162599e-07
0, 0, 31, 6.952736271159665e-07
0, 0, 32, 8.149992822836793e-07
0, 0, 33, 0
0, 0, 34, 0
0, 0, 35, 0
0, 0, 36, 0
0, 0, 37, 0
0, 0, 38, 0
0, 0, 39, 0
0, 0, 40, 0
0, 0, 41, 0
0, 0, 42, 0
0, 0, 43, 0
0, 0, 44, 0
0, 0, 45, 0
0, 0, 46, 0
0, 0, 47, 0
0, 0, 48, 0
0, 0, 49, 0
0, 0, 50, 7.542321895925852e-07
0, 0, 51, 8.411277008235629e-07
0, 0, 52, 9.066778829946998e-07
0, 0, 53, 1.04454306892876e-06
0, 0, 54, 6.574926487701305e-07
0, 0, 55, 0
0, 0, 56, 0
0, 0, 57, 0
0, 0, 58, 0
0, 0, 59, 0
0, 0, 60, 0
0, 0, 61, 0
0, 0, 62, 0
0, 0, 63, 0
0, 0, 64, 0
0, 0, 65, 0
0, 0, 66, 0
0, 0, 67, 3.726243846813304e-07
0, 0, 68, 8.118507253129792e-07
0, 0, 69, 4.922582093058736e-07
0, 0, 70, 0
0, 0, 71, 0
0, 0, 72, 0
0, 0, 73, 0
0, 0, 74, 0
0, 0, 75, 0
0, 0, 76, 0
0, 0, 77, 0
0, 0, 78, 0
0, 0, 79, 0
0, 0, 80, 0
0, 0, 81, 0
0, 0, 82, 1.14275358953364e-07
0, 0, 83, 0
0, 0, 84, 0
0, 0, 85, 0
0, 0, 86, 0
0, 0, 87, 0
0, 0, 88, 0
0, 0, 89, 0
0, 0, 90, 0
0, 0, 91, 0
0, 0, 92, 0
0, 0, 93, 0
0, 0, 94, 0
0, 0, 95, 0
0, 0, 96, 0
0, 0, 97, 0
0, 0, 98, 0
0, 0, 99, 1.467871957316902e-08
0, 0, 100, 0
0, 0, 101, 0
0, 0, 102, 0
0, 0, 103, 0
0, 0, 104, 0
0, 0, 105, 0
0, 0, 106, 0
0, 0, 107, 0
0, 0, 108, 0
0, 0, 109, 0
0, 0, 110, 0
0, 0, 111, 0
0, 0, 112, 0
0, 0, 113, 0
0, 0, 114, 0
0, 0, 115, 0
0, 0, 116, 0
0, 0, 117, 0
0, 0, 118, 0
0, 0, 119, 0
0, 0, 120, 0
0, 0, 121, 0
0, 0, 122, 0
0, 0, 123, 0
0, 0, 124, 0
0, 0, 125, 0
0, 0, 126, 0
0, 0, 127, 0
0, 0, 128, 0
0, 0, 129, 0
0, 0, 130, 0
0, 0, 131, 0
0, 0, 132, 0
0, 0, 133, 0
0, 0, 134, 0
0, 0, 135, 0
0, 0, 136, 0
0, 0, 137, 0
0, 0, 138, 0
0, 0, 139, 0
0, 0, 140, 0
0, 0, 141, 0
0, 0, 142, 0
0, 0, 143, 0
0, 0, 144, 0
0, 0, 145, 0
0, 0, 146, 0
0, 0, 147, 0
0, 0, 148, 0
0, 0, 149, 0
0, 0, 150, 0
0, 0, 151, 0
0, 0, 152, 0
0, 0, 153, 0
0, 0, 154, 0
0, 0, 155, 0
0, 0, 156, 0
0, 0, 157, 0
0, 0, 158, 0
0, 0, 159, 0
0, 0, 160, 0
0, 0, 161, 0
0, 0, 162, 0
0, 0, 163, 0
0, 0, 164, 0
0, 0, 165, 0
0, 0, 166, 0
0, 0, 167, 0
0, 0, 168, 0
0, 0, 169, 0
0, 0, 170, 0
0, 0, 171, 0
0, 0, 172, 0
0, 0, 173, 0
0, 0, 174, 0
0, 0, 175, 0
0, 0, 176, 0
0, 0, 177, 0
0, 0, 178, 0
0, 0, 179, 0
0, 0, 180, 0
0, 0, 181, 0
0, 0, 182, 0
0, 0, 183, 0
0, 0, 184, 0
0, 0, 185, 0
0, 0, 186, 0
0, 0, 187, 0
0, 0, 188, 0
0, 0, 189, 0
0, 0, 190, 0
0, 0, 191, 0
0, 0, 192, 0
0, 0, 193, 0
0, 0, 194, 0
0, 0, 195, 0
0, 0, 196, 0
0, 0, 197, 0
0, 0, 198, 0
0, 0, 199, 0
1, 0, 0, 3.166328781389893e-07
1, 0, 1, 3.403058883577614e-07
1, 0, 2, 3.839859061827156e-07
1, 0, 3, 1.706462455786095e-07
1, 0, 4, 0
1, 0, 5, 0
1, 0, 6, 0
1, 0, 7, 0
1, 0, 8, 0
1, 0, 9, 0
1, 0, 10, 0
1, 0, 11, 0
1, 0, 12, 0
1, 0, 13, 0
1, 0, 14, 0
1, 0, 15, 0
1, 0, 16, 0
1, 0, 17, 0
1, 0, 18, 0
1, 0, 19, 0
1, 0, 20, 0
1, 0, 21, 0
1, 0, 22, 0
1, 0, 23, 0
1, 0, 24, 0
1, 0, 25, 0
1, 0, 26, 0
1, 0, 27, 0
1, 0, 28, 0
1, 0, 29, 4.246031082288937e-08
1, 0, 30, 2.021390855588834e-06
1, 0, 31, 2.849273187166546e-06
1, 0, 32, 1.807976332202088e-06
1, 0, 33, 0
1, 0, 34, 0
1, 0, 35, 0
1, 0, 36, 0
1, 0, 37, 0
1, 0, 38, 0
1, 0, 39, 0
1, 0, 40, 0
1, 0, 41, 0
1, 0, 42, 0
1, 0, 43, 0
1, 0, 44, 0
1, 0, 45, 0
1, 0, 46, 0
1, 0, 47, 0
1, 0, 48, 0
1, 0, 49, 0
1, 0, 50, 0
1, 0, 51, 0
1, 0, 52, 0
1, 0, 53, 0
1, 0, 54, 4.991520654584747e-07
1, 0, 55, 1.274206510970544e-06
1, 0, 56, 1.393248112435685e-06
1, 0, 57, 1.794246600184124e-06
1, 0, 58, 3.053582076972816e-06
1, 0, 59, 7.993820076990232e-07
1, 0, 60, 0
1, 0, 61, 0
1, 0, 62, 0
1, 0, 63, 0
1, 0, 64, 0
1, 0, 65, 4.632441346075211e-07
1, 0, 66, 7.476854193555482e-07
1, 0, 67, 3.612951786635676e-07
1, 0, 68, 0
1, 0, 69, 0
1, 0, 70, 0
1, 0, 71, 0
1, 0, 72, 0
1, 0, 73, 0
1, 0, 74, 0
1, 0, 75, 0
1, 0, 76, 0
1, 0, 77, 0
1, 0, 78, 0
1, 0, 79, 0
1, 0, 80, 0
1, 0, 81, 0
1, 0, 82, 0
1, 0, 83, 0
1, 0, 84, 0
1, 0, 85, 0
1, 0, 86, 0
1, 0, 87, 0
1, 0, 88, 0
1, 0, 89, 0
1, 0, 90, 0
1, 0, 91, 0
1, 0, 92, 0
1, 0, 93, 0
1, 0, 94, 0
1, 0, 95, 0
1, 0, 96, 0
1, 0, 97, 0
1, 0, 98, 0
1, 0, 99, 0
1, 0, 100, 0
1, 0, 101, 0
1, 0, 102, 0
1, 0, 103, 0
1, 0, 104, 0
1, 0, 105, 0
1, 0, 106, 0
1, 0, 107, 0
1, 0, 108, 0
1, 0, 109, 0
1, 0, 110, 0
1, 0, 111, 0
1, 0, 112, 0
1, 0, 113, 0
1, 0, 114, 0
1, 0, 115, 0
1, 0, 116, 0
1, 0, 117, 0
1, 0, 118, 0
1, 0, 119, 0
1, 0, 120, 0
1, 0, 121, 0
1, 0, 122, 0
1, 0, 123, 0
1, 0, 124, 0
1, 0, 125, 0
1, 0, 126, 0
1, 0, 127, 0
1, 0, 128, 0
1, 0, 129, 0
1, 0, 130, 0
1, 0, 131, 0
1, 0, 132, 0
1, 0, 133, 0
1, 0, 134, 0
1, 0, 135, 0
1, 0, 136, 0
1, 0, 137, 0
1, 0, 138, 0
1, 0, 139, 0
1, 0, 140, 0
1, 0, 141, 0
1, 0, 142, 0
1, 0, 143, 0
1, 0, 144, 0
1, 0, 145, 0
1, 0, 146, 0
1, 0, 147, 0
1, 0, 148, 0
1, 0, 149, 0
1, 0, 150, 0
1, 0, 151, 0
1, 0, 152, 0
1, 0, 153, 0
1, 0, 154, 0
1, 0, 155, 0
1, 0, 156, 0
1, 0, 157, 0
1, 0, 158, 0
1, 0, 159, 0
1, 0, 160, 0
1, 0, 161, 0
1, 0, 162, 0
1, 0, 163, 0
1, 0, 164, 0
1, 0, 165, 0
1, 0, 166, 0
1, 0, 167, 0
1, 0, 168, 0
1, 0, 169, 0
1, 0, 170, 0
1, 0, 171, 0
1, 0, 172, 0
1, 0, 173, 0
1, 0, 174, 0
1, 0, 175, 0
1, 0, 176, 0
1, 0, 177, 0
1, 0, 178, 0
1, 0, 179, 0
1, 0, 180, 0
1, 0, 181, 0
1, 0, 182, 0
1, 0, 183, 0
1, 0, 184, 0
1, 0, 185, 0
1, 0, 186, 0
1, 0, 187, 0
1, 0, 188, 0
1, 0, 189, 0
1, 0, 190, 0
1, 0, 191, 0
1, 0, 192, 0
1, 0, 193, 0
1, 0, 194, 0
1, 0, 195, 0
1, 0, 196, 0
1, 0, 197, 0
1, 0, 198, 0
1, 0, 199, 0
2, 0, 0, 0
2, 0, 1, 0
2, 0, 2, 0
2, 0, 3, 0
2, 0, 4, 0
2, 0, 5, 0
2, 0, 6, 0
2, 0, 7, 0
2, 0, 8, 0
2, 0, 9, 0
2, 0, 10, 0
2, 0, 11, 0
2, 0, 12, 0
2, 0, 13, 0
2, 0, 14, 0
2, 0, 15, 0
2, 0, 16, 0
2, 0, 17, 0
2, 0, 18, 0
2, 0, 19, 0
2, 0, 20, 0
2, 0, 21, 0
2, 0, 22, 0
2, 0, 23, 0
2, 0, 24, 0
2, 0, 25, 0
2, 0, 26, 0
2, 0, 27, 0
2, 0, 28, 4.73498829478558e-07
2, 0, 29, 8.093001611086947e-07
2, 0, 30, 0
2, 0, 31, 0
2, 0, 32, 0
2, 0, 33, 0
2, 0, 34, 0
2, 0, 35, 0
2, 0, 36, 0
2, 0, 37, 0
2, 0, 38, 0
2, 0, 39, 0
2, 0, 40, 0
2, 0, 41, 0
2, 0, 42, 0
2, 0, 43, 0
2, 0, 44, 0
2, 0, 45, 0
2, 0, 46, 0
2, 0, 47, 0
2, 0, 48, 0
2, 0, 49, 0
2, 0, 50, 0
2, 0, 51, 0
2, 0, 52, 0
2, 0, 53, 0
2, 0, 54, 0
2, 0, 55, 0
2, 0, 56, 0
2, 0, 57, 0
2, 0, 58, 0
2, 0, 59, 0
2, 0, 60, 0
2, 0, 61, 0
2, 0, 62, 0
2, 0, 63, 4.71622115583159e-07
2, 0, 64, 7.103917596396059e-07
2, 0, 65, 2.194692001467047e-07
2, 0, 66, 0
2, 0, 67, 0
2, 0, 68, 0
2, 0, 69, 0
2, 0, 70, 0
2, 0, 71, 0
2, 0, 72, 0
2, 0, 73, 0
2, 0, 74, 0
2, 0, 75, 0
2, 0, 76, 0
2, 0, 77, 0
2, 0, 78, 0
2, 0, 79, 0
2, 0, 80, 0
2, 0, 81, 0
2, 0, 82, 0
2, 0, 83, 0
2, 0, 84, 0
2, 0, 85, 0
2, 0, 86, 0
2, 0, 87, 0
2, 0, 88, 0
2, 0, 89, 0
2, 0, 90, 0
2, 0, 91, 0
2, 0, 92, 0
2, 0, 93, 0
2, 0, 94, 0
2, 0, 95, 0
2, 0, 96, 0
2, 0, 97, 0
2, 0, 98, 0
2, 0, 99, 0
2, 0, 100, 0
2, 0, 101, 0
2, 0, 102, 0
2, 0, 103, 0
2, 0, 104, 0
2, 0, 105, 0
2, 0, 106, 0
2, 0, 107, 0
2, 0, 108, 0
2, 0, 109, 0
2, 0, 110, 0
2, 0, 111, 0
2, 0, 112, 0
2, 0, 113, 0
2, 0, 114, 0
2, 0, 115, 0
2, 0, 116, 0
2, 0, 117, 0
2, 0, 118, 0
2, 0, 119, 0
2, 0, 120, 0
2, 0, 121, 0
2, 0, 122, 0
2, 0, 123, 0
2, 0, 124, 0
2, 0, 125, 0
2, 0, 126, 0
2, 0, 127, 0
2, 0, 128, 0
2, 0, 129, 0
2, 0, 130, 0
2, 0, 131, 0
2, 0, 132, 0
2, 0, 133, 0
2, 0, 134, 0
2, 0, 135, 0
2, 0, 136, 0
2, 0, 137, 0
2, 0, 138, 0
2, 0, 139, 0
2, 0, 140, 0
2, 0, 141, 0
2, 0, 142, 0
2, 0, 143, 0
2, 0, 144, 0
2, 0, 145, 0
2, 0, 146, 0
2, 0, 147, 0
2, 0, 148, 0
2, 0, 149, 0
2, 0, 150, 0
2, 0, 151, 0
2, 0, 152, 0
2, 0, 153, 0
2, 0, 154, 0
2, 0, 155, 0
2, 0, 156, 0
2, 0, 157, 0
2, 0, 158, 0
2, 0, 159, 0
2, 0, 160, 0
2, 0, 161, 0
2, 0, 162, 0
2, 0, 163, 0
2, 0, 164, 0
2, 0, 165, 0
2, 0, 166, 0
2, 0, 167, 0
2, 0, 168, 0
2, 0, 169, 0
2, 0, 170, 0
2, 0, 171, 0
2, 0, 172, 0
2, 0, 173, 0
2, 0, 174, 0
2, 0, 175, 0
2, 0, 176, 0
2, 0, 177, 0
2, 0, 178, 0
2, 0, 179, 0
2, 0, 180, 0
2, 0, 181, 0
2, 0, 182, 0
2, 0, 183, 0
2, 0, 184, 0
2, 0, 185, 0
2, 0, 186, 0
2, 0, 187, 0
2, 0, 188, 0
2, 0, 189, 0
2, 0, 190, 0
2, 0, 191, 0
2, 0, 192, 0
2, 0, 193, 0
2, 0, 194, 0
2, 0, 195, 0
2, 0, 196, 0
2, 0, 197, 0
2, 0, 198, 0
2, 0, 199, 0
3, 0, 0, 0
3, 0, 1, 0
3, 0, 2, 0
3, 0, 3, 0
3, 0, 4, 0
3, 0, 5, 0
3, 0, 6, 0
3, 0, 7, 0
3, 0, 8, 0
3, 0, 9, 0
3, 0, 10, 0
3, 0, 11, 0
3, 0, 12, 0
3, 0, 13, 0
3, 0, 14, 0
3, 0, 15, 0
3, 0, 16, 0
3, 0, 17, 0
3, 0, 18, 0
3, 0, 19, 0
3, 0, 20, 0
3, 0, 21, 0
3, 0, 22, 0
3, 0, 23, 0
3, 0, 24, 0
3, 0, 25, 0
3, 0, 26, 0
3, 0, 27, 6.928156608410063e-07
3, 0, 28, 3.948888718241506e-07
3, 0, 29, 0
3, 0, 30, 0
3, 0, 31, 0
3, 0, 32, 0
3, 0, 33, 0
3, 0, 34, 0
3, 0, 35, 0
3, 0, 36, 0
3, 0, 37, 0
3, 0, 38, 0
3, 0, 39, 0
3, 0, 40, 0
3, 0, 41, 0
3, 0, 42, 0
3, 0, 43, 0
3, 0, 44, 0
3, 0, 45, 0
3, 0, 46, 0
3, 0, 47, 0
3, 0, 48, 0
3, 0, 49, 0
3, 0, 50, 0
3, 0, 51, 0
3, 0, 52, 0
3, 0, 53, 0
3, 0, 54, 0
3, 0, 55, 0
3, 0, 56, 0
3, 0, 57, 0
3, 0, 58, 0
3, 0, 59, 0
3, 0, 60, 0
3, 0, 61, 5.929294957240927e-07
3, 0, 62, 6.073507279324986e-07
3, 0, 63, 9.621100360845958e-08
3, 0, 64, 0
3, 0, 65, 0
3, 0, 66, 0
3, 0, 67, 0
3, 0, 68, 0
3, 0, 69, 0
3, 0, 70, 0
3, 0, 71, 0
3, 0, 72, 0
3, 0, 73, 0
3, 0, 74, 0
3, 0, 75, 0
3, 0, 76, 0
3, 0, 77, 0
3, 0, 78, 0
3, 0, 79, 0
3, 0, 80, 0
3, 0, 81, 0
3, 0, 82, 0
3, 0, 83, 0
3, 0, 84, 0
3, 0, 85, 0
3, 0, 86, 0
3, 0, 87, 1.097816607398272e-06
3, 0, 88, 1.390436523251992e-06
3, 0, 89, 1.597232653693936e-06
3, 0, 90, 2.514301968403743e-06
3, 0, 91, 1.938227114806068e-06
3, 0, 92, 0
3, 0, 93, 0
3, 0, 94, 0
3, 0, 95, 0
3, 0, 96, 0
3, 0, 97, 0
3, 0, 98, 0
3, 0, 99, 0
3, 0, 100, 0
3, 0, 101, 0
3, 0, 102, 0
3, 0, 103, 0
3, 0, 104, 0
3, 0, 105, 0
3, 0, 106, 0
3, 0, 107, 0
3, 0, 108, 0
3, 0, 109, 0
3, 0, 110, 0
3, 0, 111, 0
3, 0, 112, 0
3, 0, 113, 0
3, 0, 114, 0
3, 0, 115, 0
3, 0, 116, 0
3, 0, 117, 0
3, 0, 118, 0
3, 0, 119, 0
3, 0, 120, 0
3, 0, 121, 0
3, 0, 122, 0
3, 0, 123, 0
3, 0, 124, 0
3, 0, 125, 0
3, 0, 126, 0
3, 0, 127, 0
3, 0, 128, 0
3, 0, 129, 0
3, 0, 130, 0
3, 0, 131, 0
3, 0, 132, 0
3, 0, 133, 0
3, 0, 134, 0
3, 0, 135, 0
3, 0, 136, 0
3, 0, 137, 0
3, 0, 138, 0
3, 0, 139, 0
3, 0, 140, 0
3, 0, 141, 0
3, 0, 142, 0
3, 0, 143, 0
3, 0, 144, 0
3, 0, 145, 0
3, 0, 146, 0
3, 0, 147, 0
3, 0, 148, 0
3, 0, 149, 0
3, 0, 150, 0
3, 0, 151, 0
3, 0, 152, 0
3, 0, 153, 0
3, 0, 154, 0
3, 0, 155, 0
3, 0, 156, 0
3, 0, 157, 0
3, 0, 158, 0
3, 0, 159, 0
3, 0, 160, 0
3, 0, 161, 0
3, 0, 162, 0
3, 0, 163, 0
3, 0, 164, 0
3, 0, 165, 0
3, 0, 166, 0
3, 0, 167, 0
3, 0, 168, 0
3, 0, 169, 0
3, 0, 170, 0
3, 0, 171, 0
3, 0, 172, 0
3, 0, 173, 0
3, 0, 174, 0
3, 0, 175, 0
3, 0, 176, 0
3, 0, 177, 0
3, 0, 178, 0
3, 0, 179, 0
3, 0, 180, 0
3, 0, 181, 0
3, 0, 182, 0
3, 0, 183, 0
3, 0, 184, 0
3, 0, 185, 0
3, 0, 186, 0
3, 0, 187, 0
3, 0, 188, 0
3, 0, 189, 0
3, 0, 190, 0
3, 0, 191, 0
3, 0, 192, 0
3, 0, 193, 0
3, 0, 194, 0
3, 0, 195, 0
3, 0, 196, 0
3, 0, 197, 0
3, 0, 198, 0
3, 0, 199, 0
4, 0, 0, 2.447435690555722e-06
4, 0, 1, 0
4, 0, 2, 0
4, 0, 3, 0
4, 0, 4, 0
4, 0, 5, 0
4, 0, 6, 0
4, 0, 7, 0
4, 0, 8, 0
4, 0, 9, 0
4, 0, 10, 0
4, 0, 11, 0
4, 0, 12, 0
4, 0, 13, 0
4, 0, 14, 0
4, 0, 15, 0
4, 0, 16, 0
4, 0, 17, 0
4, 0, 18, 0
4, 0, 19, 0
4, 0, 20, 0
4, 0, 21, 0
4, 0, 22, 0
4, 0, 23, 0
4, 0, 24, 0
4, 0, 25, 2.166990356045062e-07
4, 0, 26, 7.070547667353821e-07
4, 0, 27, 1.249074870202094e-07
4, 0, 28, 0
4, 0, 29, 0
4, 0, 30, 0
4, 0, 31, 0
4, 0, 32, 0
4, 0, 33, 0
4, 0, 34, 0
4, 0, 35, 0
4, 0, 36, 0
4, 0, 37, 0
4, 0, 38, 0
4, 0, 39, 0
4, 0, 40, 0
4, 0, 41, 0
4, 0, 42, 0
4, 0, 43, 0
4, 0, 44, 0
4, 0, 45, 0
4, 0, 46, 0
4, 0, 47, 0
4, 0, 48, 0
4, 0, 49, 0
4, 0, 50, 0
4, 0, 51, 0
4, 0, 52, 0
4, 0, 53, 0
4, 0, 54, 0
4, 0, 55, 0
4, 0, 56, 0
4, 0, 57, 0
4, 0, 58, 1.176569313088294e-07
4, 0, 59, 6.020517275828752e-07
4, 0, 60, 6.790606335016491e-07
4, 0, 61, 8.396163764246012e-10
4, 0, 62, 0
4, 0, 63, 0
4, 0, 64, 0
4, 0, 65, 0
4, 0, 66, 0
4, 0, 67, 0
4, 0, 68, 0
4, 0, 69, 0
4, 0, 70, 0
4, 0, 71, 0
4, 0, 72, 0
4, 0, 73, 0
4, 0, 74, 0
4, 0, 75, 1.759201779805153e-07
4, 0, 76, 6.990516681071313e-07
4, 0, 77, 7.030990900602774e-07
4, 0, 78, 6.776814984732482e-07
4, 0, 79, 6.566700676557957e-07
4, 0, 80, 7.595268129989563e-07
4, 0, 81, 8.750263305046246e-07
4, 0, 82, 8.93551600711362e-07
4, 0, 83, 8.382150440411351e-07
4, 0, 84, 8.458291631541215e-07
4, 0, 85, 1.011399945127778e-06
4, 0, 86, 1.059914325196587e-06
4, 0, 87, 8.841328735798015e-08
4, 0, 88, 0
4, 0, 89, 0
4, 0, 90, 0
4, 0, 91, 0
4, 0, 92, 0
4, 0, 93, 0
4, 0, 94, 0
4, 0, 95, 0
4, 0, 96, 0
4, 0, 97, 0
4, 0, 98, 0
4, 0, 99, 0
4, 0, 100, 0
4, 0, 101, 0
4, 0, 102, 0
4, 0, 103, 0
4, 0, 104, 0
4, 0, 105, 0
4, 0, 106, 0
4, 0, 107, 0
4, 0, 108, 0
4, 0, 109, 0
4, 0, 110, 0
4, 0, 111, 0
4, 0, 112, 0
4, 0, 113, 0
4, 0, 114, 0
4, 0, 115, 0
4, 0, 116, 0
4, 0, 117, 0
4, 0, 118, 0
4, 0, 119, 0
4, 0, 120, 0
4, 0, 121, 0
4, 0, 122, 0
4, 0, 123, 0
4, 0, 124, 0
4, 0, 125, 0
4, 0, 126, 0
4, 0, 127, 0
4, 0, 128, 0
4, 0, 129, 0
4, 0, 130, 0
4, 0, 131, 0
4, 0, 132, 0
4, 0, 133, 0
4, 0, 134, 0
4, 0, 135, 0
4, 0, 136, 0
4, 0, 137, 0
4, 0, 138, 0
4, 0, 139, 0
4, 0, 140, 0
4, 0, 141, 0
4, 0, 142, 0
4, 0, 143, 0
4, 0, 144, 0
4, 0, 145, 0
4, 0, 146, 0
4, 0, 147, 0
4, 0, 148, 0
4, 0, 149, 0
4, 0, 150, 0
4, 0, 151, 0
4, 0, 152, 0
4, 0, 153, 0
4, 0, 154, 0
4, 0, 155, 0
4, 0, 156, 0
4, 0, 157, 0
4, 0, 158, 0
4, 0, 159, 0
4, 0, 160, 0
4, 0, 161, 0
4, 0, 162, 0
4, 0, 163, 0
4, 0, 164, 0
4, 0, 165, 0
4, 0, 166, 0
4, 0, 167, 0
4, 0, 168, 0
4, 0, 169, 0
4, 0, 170, 0
4, 0, 171, 0
4, 0, 172, 0
4, 0, 173, 0
4, 0, 174, 0
4, 0, 175, 0
4, 0, 176, 0
4, 0, 177, 0
4, 0, 178, 0
4, 0, 179, 0
4, 0, 180, 0
4, 0, 181, 0
4, 0, 182, 0
4, 0, 183, 0
4, 0, 184, 0
4, 0, 185, 0
4, 0, 186, 0
4, 0, 187, 0
4, 0, 188, 0
4, 0, 189, 0
4, 0, 190, 0
4, 0, 191, 0
4, 0, 192, 0
4, 0, 193, 0
4, 0, 194, 0
4, 0, 195, 0
4, 0, 196, 0
4, 0, 197, 0
4, 0, 198, 0
4, 0, 199, 0
5, 0, 0, 0
5, 0, 1, 0
5, 0, 2, 0
5, 0, 3, 0
5, 0, 4, 0
5, 0, 5, 0
5, 0, 6, 0
5, 0, 7, 0
5, 0, 8, 0
5, 0, 9, 0
5, 0, 10, 0
5, 0, 11, 0
5, 0, 12, 0
5, 0, 13, 0
5, 0, 14, 0
5, 0, 15, 0
5, 0, 16, 0
5, 0, 17, 0
5, 0, 18, 0
5, 0, 19, 0
5, 0, 20, 0
5, 0, 21, 0
5, 0, 22, 0
5, 0, 23, 0
5, 0, 24, 6.619522707751457e-08
5, 0, 25, 5.688114015356405e-07
5, 0, 26, 0
5, 0, 27, 8.0365008810028e-14
5, 0, 28, 1.766811252423145e-13
5, 0, 29, 0
5, 0, 30, 0
5, 0, 31, 0
5, 0, 32, 0
5, 0, 33, 0
5, 0, 34, 0
5, 0, 35, 0
5, 0, 36, 0
5, 0, 37, 0
5, 0, 38, 0
5, 0, 39, 0
5, 0, 40, 0
5, 0, 41, 0
5, 0, 42, 0
5, 0, 43, 0
5, 0, 44, 0
5, 0, 45, 0
5, 0, 46, 0
5, 0, 47, 0
5, 0, 48, 0
5, 0, 49, 0
5, 0, 50, 0
5, 0, 51, 0
5, 0, 52, 0
5, 0, 53, 0
5, 0, 54, 0
5, 0, 55, 0
5, 0, 56, 2.816670132688159e-07
5, 0, 57, 5.458575742522953e-07
5, 0, 58, 4.418725438881665e-07
5, 0, 59, 0
5, 0, 60, 9.378782472868608e-15
5, 0, 61, 0
5, 0, 62, 0
5, 0, 63, 0
5, 0, 64, 0
5, 0, 65, 0
5, 0, 66, 0
5, 0, 67, 0
5, 0, 68, 4.673832449952897e-07
5, 0, 69, 5.069965709481039e-07
5, 0, 70, 5.788469934486784e-07
5, 0, 71, 5.783952019555727e-07
5, 0, 72, 5.994538696540985e-07
5, 0, 73, 5.583581810242322e-07
5, 0, 74, 5.993006766402686e-07
5, 0, 75, 4.318644641898572e-07
5, 0, 76, 0
5, 0, 77, 0
5, 0, 78, 0
5, 0, 79, 0
5, 0, 80, 0
5, 0, 81, 0
5, 0, 82, 0
5, 0, 83, 0
5, 0, 84, 0
5, 0, 85, 0
5, 0, 86, 0
5, 0, 87, 0
5, 0, 88, 0
5, 0, 89, 0
5, 0, 90, 0
5, 0, 91, 0
5, 0, 92, 0
5, 0, 93, 0
5, 0, 94, 0
5, 0, 95, 0
5, 0, 96, 0
5, 0, 97, 0
5, 0, 98, 0
5, 0, 99, 0
5, 0, 100, 0
5, 0, 101, 0
5, 0, 102, 0
5, 0, 103, 0
5, 0, 104, 0
5, 0, 105, 0
5, 0, 106, 0
5, 0, 107, 0
5, 0, 108, 0
5, 0, 109, 0
5, 0, 110, 0
5, 0, 111, 0
5, 0, 112, 0
5, 0, 113, 0
5, 0, 114, 0
5, 0, 115, 0
5, 0, 116, 0
5, 0, 117, 0
5, 0, 118, 0
5, 0, 119, 0
5, 0, 120, 0
5, 0, 121, 0
5, 0, 122, 0
5, 0, 123, 0
5, 0, 124, 0
5, 0, 125, 0
5, 0, 126, 0
5, 0, 127, 0
5, 0, 128, 0
5, 0, 129, 0
5, 0, 130, 0
5, 0, 131, 0
5, 0, 132, 0
5, 0, 133, 0
5, 0, 134, 0
5, 0, 135, 0
5, 0, 136, 0
5, 0, 137, 0
5, 0, 138, 0
5, 0, 139, 0
5, 0, 140, 0
5, 0, 141, 0
5, 0, 142, 0
5, 0, 143, 0
5, 0, 144, 0
5, 0, 145, 0
5, 0, 146, 0
5, 0, 147, 0
5, 0, 148, 0
5, 0, 149, 0
5, 0, 150, 0
5, 0, 151, 0
5, 0, 152, 0
5, 0, 153, 0
5, 0, 154, 0
5, 0, 155, 0
5, 0, 156, 0
5, 0, 157, 0
5, 0, 158, 0
5, 0, 159, 0
5, 0, 160, 0
5, 0, 161, 0
5, 0, 162, 0
5, 0, 163, 0
5, 0, 164, 0
5, 0, 165, 0
5, 0, 166, 0
5, 0, 167, 0
5, 0, 168, 0
5, 0, 169, 0
5, 0, 170, 0
5, 0, 171, 0
5, 0, 172, 0
5, 0, 173, 0
5, 0, 174, 0
5, 0, 175, 0
5, 0, 176, 0
5, 0, 177, 0
5, 0, 178, 0
5, 0, 179, 0
5, 0, 180, 0
5, 0, 181, 0
5, 0, 182, 0
5, 0, 183, 0
5, 0, 184, 0
5, 0, 185, 0
5, 0, 186, 0
5, 0, 187, 0
5, 0, 188, 0
5, 0, 189, 0
5, 0, 190, 0
5, 0, 191, 0
5, 0, 192, 0
5, 0, 193, 0
5, 0, 194, 0
5, 0, 195, 0
5, 0, 196, 0
5, 0, 197, 0
5, 0, 198, 0
5, 0, 199, 0
6, 0, 0, 7.440662841418089e-08
6, 0, 1, 0
6, 0, 2, 0
6, 0, 3, 0
6, 0, 4, 0
6, 0, 5, 0
6, 0, 6, 0
6, 0, 7, 0
6, 0, 8, 0
6, 0, 9, 0
6, 0, 10, 0
6, 0, 11, 0
6, 0, 12, 0
6, 0, 13, 0
6, 0, 14, 0
6, 0, 15, 0
6, 0, 16, 0
6, 0, 17, 0
6, 0, 18, 0
6, 0, 19, 0
6, 0, 20, 0
6, 0, 21, 0
6, 0, 22, 0
6, 0, 23, 0
6, 0, 24, 0
6, 0, 25, 0
6, 0, 26, 0
6, 0, 27, 0
6, 0, 28, 0
6, 0, 29, 0
6, 0, 30, 0
6, 0, 31, 0
6, 0, 32, 0
6, 0, 33, 0
6, 0, 34, 0
6, 0, 35, 0
6, 0, 36, 0
6, 0, 37, 0
6, 0, 38, 0
6, 0, 39, 0
6, 0, 40, 0
6, 0, 41, 0
6, 0, 42, 0
6, 0, 43, 0
6, 0, 44, 0
6, 0, 45, 0
6, 0, 46, 0
6, 0, 47, 0
6, 0, 48, 0
6, 0, 49, 0
6, 0, 50, 0
6, 0, 51, 0
6, 0, 52, 0
6, 0, 53, 0
6, 0, 54, 4.559579451779427e-07
6, 0, 55, 5.801460929433233e-07
6, 0, 56, 3.208752161754092e-07
6, 0, 57, 0
6, 0, 58, 0
6, 0, 59, 0
6, 0, 60, 0
6, 0, 61, 1.857711140473839e-07
6, 0, 62, 5.962216391708353e-07
6, 0, 63, 5.261352384877682e-07
6, 0, 64, 5.007961476621858e-07
6, 0, 65, 4.878802997154708e-07
6, 0, 66, 4.811224698642036e-07
6, 0, 67, 5.354461904971686e-07
6, 0, 68, 5.518462486975295e-08
6, 0, 69, 0
6, 0, 70, 0
6, 0, 71, 0
6, 0, 72, 0
6, 0, 73, 0
6, 0, 74, 0
6, 0, 75, 0
6, 0, 76, 0
6, 0, 77, 0
6, 0, 78, 0
6, 0, 79, 0
6, 0, 80, 0
6, 0, 81, 0
6, 0, 82, 0
6, 0, 83, 0
6, 0, 84, 0
6, 0, 85, 0
6, 0, 86, 0
6, 0, 87, 0
6, 0, 88, 0
6, 0, 89, 0
6, 0, 90, 0
6, 0, 91, 0
6, 0, 92, 0
6, 0, 93, 0
6, 0, 94, 0
6, 0, 95, 0
6, 0, 96, 0
6, 0, 97, 0
6, 0, 98, 0
6, 0, 99, 0
6, 0, 100, 0
6, 0, 101, 0
6, 0, 102, 0
6, 0, 103, 0
6, 0, 104, 0
6, 0, 105, 0
6, 0, 106, 0
6, 0, 107, 0
6, 0, 108, 0
6, 0, 109, 0
6, 0, 110, 0
6, 0, 111, 0
6, 0, 112, 0
6, 0, 113, 0
6, 0, 114, 0
6, 0, 115, 0
6, 0, 116, 0
6, 0, 117, 0
6, 0, 118, 0
6, 0, 119, 0
6, 0, 120, 0
6, 0, 121, 0
6, 0, 122, 0
6, 0, 123, 0
6, 0, 124, 0
6, 0, 125, 0
6, 0, 126, 0
6, 0, 127, 0
6, 0, 128, 0
6, 0, 129, 0
6, 0, 130, 0
6, 0, 131, 0
6, 0, 132, 0
6, 0, 133, 0
6, 0, 134, 0
6, 0, 135, 0
6, 0, 136, 0
6, 0, 137, 0
6, 0, 138, 0
6, 0, 139, 0
6, 0, 140, 0
6, 0, 141, 0
6, 0, 142, 0
6, 0, 143, 0
6, 0, 144, 0
6, 0, 145, 0
6, 0, 146, 0
6, 0, 147, 0
6, 0, 148, 0
6, 0, 149, 0
6, 0, 150, 0
6, 0, 151, 0
6, 0, 152, 0
6, 0, 153, 0
6, 0, 154, 0
6, 0, 155, 0
6, 0, 156, 0
6, 0, 157, 0
6, 0, 158, 0
6, 0, 159, 0
6, 0, 160, 0
6, 0, 161, 0
6, 0, 162, 0
6, 0, 163, 0
6, 0, 164, 0
6, 0, 165, 0
6, 0, 166, 0
6, 0, 167, 0
6, 0, 168, 0
6, 0, 169, 0
6, 0, 170, 0
6, 0, 171, 0
6, 0, 172, 0
6, 0, 173, 0
6, 0, 174, 0
6, 0, 175, 0
6, 0, 176, 0
6, 0, 177, 0
6, 0, 178, 0
6, 0, 179, 0
6, 0, 180, 0
6, 0, 181, 0
6, 0, 182, 0
6, 0, 183, 0
6, 0, 184, 0
6, 0, 185, 0
6, 0, 186, 0
6, 0, 187, 0
6, 0, 188, 0
6, 0, 189, 0
6, 0, 190, 0
6, 0, 191, 0
6, 0, 192, 0
6, 0, 193, 0
6, 0, 194, 0
6, 0, 195, 0
6, 0, 196, 0
6, 0, 197, 0
6, 0, 198, 0
6, 0, 199, 0
7, 0, 0, 2.032166079857234e-08
7, 0, 1, 0
7, 0, 2, 0
7, 0, 3, 0
7, 0, 4, 0
7, 0, 5, 0
7, 0, 6, 0
7, 0, 7, 0
7, 0, 8, 0
7, 0, 9, 0
7, 0, 10, 0
7, 0, 11, 0
7, 0, 12, 0
7, 0, 13, 0
7, 0, 14, 0
7, 0, 15, 0
7, 0, 16, 0
7, 0, 17, 0
7, 0, 18, 0
7, 0, 19, 0
7, 0, 20, 0
7, 0, 21, 0
7, 0, 22, 0
7, 0, 23, 0
7, 0, 24, 0
7, 0, 25, 0
7, 0, 26, 0
7, 0, 27, 0
7, 0, 28, 0
7, 0, 29, 0
7, 0, 30, 0
7, 0, 31, 0
7, 0, 32, 0
7, 0, 33, 0
7, 0, 34, 0
7, 0, 35, 0
7, 0, 36, 0
7, 0, 37, 0
7, 0, 38, 0
7, 0, 39, 0
7, 0, 40, 0
7, 0, 41, 0
7, 0, 42, 0
7, 0, 43, 0
7, 0, 44, 0
7, 0, 45, 0
7, 0, 46, 0
7, 0, 47, 0
7, 0, 48, 0
7, 0, 49, 0
7, 0, 50, 2.811176003092442e-08
7, 0, 51, 5.1684463642232e-07
7, 0, 52, 9.34598006097076e-07
7, 0, 53, 9.494742698734626e-07
7, 0, 54, 4.566810787309805e-07
7, 0, 55, 3.993965833615221e-07
7, 0, 56, 4.712329655376379e-07
7, 0, 57, 3.920987126093678e-07
7, 0, 58, 4.576084791096946e-07
7, 0, 59, 4.686826855504478e-07
7, 0, 60, 4.500189163536561e-07
7, 0, 61, 2.239435303863502e-07
7, 0, 62, 0
7, 0, 63, 0
7, 0, 64, 0
7, 0, 65, 0
7, 0, 66, 0
7, 0, 67, 0
7, 0, 68, 0
7, 0, 69, 0
7, 0, 70, 0
7, 0, 71, 0
7, 0, 72, 0
7, 0, 73, 0
7, 0, 74, 0
7, 0, 75, 0
7, 0, 76, 0
7, 0, 77, 0
7, 0, 78, 0
7, 0, 79, 0
7, 0, 80, 0
7, 0, 81, 0
7, 0, 82, 0
7, 0, 83, 0
7, 0, 84, 0
7, 0, 85, 0
7, 0, 86, 0
7, 0, 87, 0
7, 0, 88, 0
7, 0, 89, 0
7, 0, 90, 0
7, 0, 91, 0
7, 0, 92, 0
7, 0, 93, 0
7, 0, 94, 0
7, 0, 95, 0
7, 0, 96, 0
7, 0, 97, 0
7, 0, 98, 0
7, 0, 99, 0
7, 0, 100, 0
7, 0, 101, 0
7, 0, 102, 0
7, 0, 103, 0
7, 0, 104, 0
7, 0, 105, 0
7, 0, 106, 0
7, 0, 107, 0
7, 0, 108, 0
7, 0, 109, 0
7, 0, 110, 0
7, 0, 111, 0
7, 0, 112, 0
7, 0, 113, 0
7, 0, 114, 0
7, 0, 115, 0
7, 0, 116, 0
7, 0, 117, 0
7, 0, 118, 0
7, 0, 119, 0
7, 0, 120, 0
7, 0, 121, 0
7, 0, 122, 0
7, 0, 123, 0
7, 0, 124, 0
7, 0, 125, 0
7, 0, 126, 0
7, 0, 127, 0
7, 0, 128, 0
7, 0, 129, 0
7, 0, 130, 0
7, 0, 131, 0
7, 0, 132, 0
7, 0, 133, 0
7, 0, 134, 0
7, 0, 135, 0
7, 0, 136, 0
7, 0, 137, 0
7, 0, 138, 0
7, 0, 139, 0
7, 0, 140, 0
7, 0, 141, 0
7, 0, 142, 0
7, 0, 143, 0
7, 0, 144, 0
7, 0, 145, 0
7, 0, 146, 0
7, 0, 147, 0
7, 0, 148, 0
7, 0, 149, 0
7, 0, 150, 0
7, 0, 151, 0
7, 0, 152, 0
7, 0, 153, 0
7, 0, 154, 0
7, 0, 155, 0
7, 0, 156, 0
7, 0, 157, 0
7, 0, 158, 0
7, 0, 159, 0
7, 0, 160, 0
7, 0, 161, 0
7, 0, 162, 0
7, 0, 163, 0
7, 0, 164, 0
7, 0, 165, 0
7, 0, 166, 0
7, 0, 167, 0
7, 0, 168, 0
7, 0, 169, 0
7, 0, 170, 0
7, 0, 171, 0
7, 0, 172, 0
7, 0, 173, 0
7, 0, 174, 0
7, 0, 175, 0
7, 0, 176, 0
7, 0, 177, 0
7, 0, 178, 0
7, 0, 179, 0
7, 0, 180, 0
7, 0, 181, 0
7, 0, 182, 0
7, 0, 183, 0
7, 0, 184, 0
7, 0, 185, 0
7, 0, 186, 0
7, 0, 187, 0
7, 0, 188, 0
7, 0, 189, 0
7, 0, 190, 0
7, 0, 191, 0
7, 0, 192, 0
7, 0, 193, 0
7, 0, 194, 0
7, 0, 195, 0
7, 0, 196, 0
7, 0, 197, 0
7, 0, 198, 0
7, 0, 199, 0
8, 0, 0, 1.39651172048616e-06
8, 0, 1, 1.688404154265299e-06
8, 0, 2, 2.438236833768315e-06
8, 0, 3, 1.82674489224155e-06
8, 0, 4, 0
8, 0, 5, 0
8, 0, 6, 0
8, 0, 7, 0
8, 0, 8, 0
8, 0, 9, 0
8, 0, 10, 0
8, 0, 11, 0
8, 0, 12, 0
8, 0, 13, 0
8, 0, 14, 0
8, 0, 15, 0
8, 0, 16, 0
8, 0, 17, 0
8, 0, 18, 0
8, 0, 19, 0
8, 0, 20, 0
8, 0, 21, 0
8, 0, 22, 0
8, 0, 23, 0
8, 0, 24, 0
8, 0, 25, 0
8, 0, 26, 0
8, 0, 27, 0
8, 0, 28, 0
8, 0, 29, 0
8, 0, 30, 0
8, 0, 31, 0
8, 0, 32, 1.131552380684298e-07
8, 0, 33, 3.399012200588913e-07
8, 0, 34, 3.216912602965749e-07
8, 0, 35, 3.50404121718384e-07
8, 0, 36, 3.372691992353793e-07
8, 0, 37, 3.95346262394014e-07
8, 0, 38, 3.258664094119013e-07
8, 0, 39, 3.754375370590424e-07
8, 0, 40, 3.265687951170548e-07
8, 0, 41, 4.291055972771574e-07
8, 0, 42, 3.347331301029044e-07
8, 0, 43, 3.311729983579426e-07
8, 0, 44, 3.833254424989718e-07
8, 0, 45, 4.082557722995261e-07
8, 0, 46, 3.35342406287964e-07
8, 0, 47, 3.814801914359123e-07
8, 0, 48, 4.642472219984484e-07
8, 0, 49, 7.682863838454068e-07
8, 0, 50, 9.827610938373255e-07
8, 0, 51, 4.622028768608288e-07
8, 0, 52, 0
8, 0, 53, 0
8, 0, 54, 0
8, 0, 55, 0
8, 0, 56, 0
8, 0, 57, 0
8, 0, 58, 0
8, 0, 59, 0
8, 0, 60, 0
8, 0, 61, 0
8, 0, 62, 0
8, 0, 63, 0
8, 0, 64, 0
8, 0, 65, 0
8, 0, 66, 0
8, 0, 67, 0
8, 0, 68, 0
8, 0, 69, 0
8, 0, 70, 0
8, 0, 71, 0
8, 0, 72, 0
8, 0, 73, 0
8, 0, 74, 0
8, 0, 75, 0
8, 0, 76, 0
8, 0, 77, 0
8, 0, 78, 0
8, 0, 79, 0
8, 0, 80, 0
8, 0, 81, 0
8, 0, 82, 0
8, 0, 83, 0
8, 0, 84, 0
8, 0, 85, 0
8, 0, 86, 0
8, 0, 87, 0
8, 0, 88, 0
8, 0, 89, 0
8, 0, 90, 0
8, 0, 91, 0
8, 0, 92, 0
8, 0, 93, 0
8, 0, 94, 0
8, 0, 95, 0
8, 0, 96, 0
8, 0, 97, 0
8, 0, 98, 0
8, 0, 99, 0
8, 0, 100, 0
8, 0, 101, 0
8, 0, 102, 0
8, 0, 103, 0
8, 0, 104, 0
8, 0, 105, 0
8, 0, 106, 0
8, 0, 107, 0
8, 0, 108, 0
8, 0, 109, 0
8, 0, 110, 0
8, 0, 111, 0
8, 0, 112, 0
8, 0, 113, 0
8, 0, 114, 0
8, 0, 115, 0
8, 0, 116, 0
8, 0, 117, 0
8, 0, 118, 0
8, 0, 119, 0
8, 0, 120, 0
8, 0, 121, 0
8, 0, 122, 0
8, 0, 123, 0
8, 0, 124, 0
8, 0, 125, 0
8, 0, 126, 0
8, 0, 127, 0
8, 0, 128, 0
8, 0, 129, 0
8, 0, 130, 0
8, 0, 131, 0
8, 0, 132, 0
8, 0, 133, 0
8, 0, 134, 0
8, 0, 135, 0
8, 0, 136, 0
8, 0, 137, 0
8, 0, 138, 0
8, 0, 139, 0
8, 0, 140, 0
8, 0, 141, 0
8, 0, 142, 0
8, 0, 143, 0
8, 0, 144, 0
8, 0, 145, 0
8, 0, 146, 0
8, 0, 147, 0
8, 0, 148, 0
8, 0, 149, 0
8, 0, 150, 0
8, 0, 151, 0
8, 0, 152, 0
8, 0, 153, 0
8, 0, 154, 0
8, 0, 155, 0
8, 0, 156, 0
8, 0, 157, 0
8, 0, 158, 0
8, 0, 159, 0
8, 0, 160, 0
8, 0, 161, 0
8, 0, 162, 0
8, 0, 163, 0
8, 0, 164, 0
8, 0, 165, 0
8, 0, 166, 0
8, 0, 167, 0
8, 0, 168, 0
8, 0, 169, 0
8, 0, 170, 0
8, 0, 171, 0
8, 0, 172, 0
8, 0, 173, 0
8, 0, 174, 0
8, 0, 175, 0
8, 0, 176, 0
8, 0, 177, 0
8, 0, 178, 0
8, 0, 179, 0
8, 0, 180, 0
8, 0, 181, 0
8, 0, 182, 0
8, 0, 183, 0
8, 0, 184, 0
8, 0, 185, 0
8, 0, 186, 0
8, 0, 187, 0
8, 0, 188, 0
8, 0, 189, 0
8, 0, 190, 0
8, 0, 191, 0
8, 0, 192, 0
8, 0, 193, 0
8, 0, 194, 0
8, 0, 195, 0
8, 0, 196, 0
8, 0, 197, 0
8, 0, 198, 0
8, 0, 199, 0
9, 0, 0, 0
9, 0, 1, 0
9, 0, 2, 0
9, 0, 3, 0
9, 0, 4, 0
9, 0, 5, 0
9, 0, 6, 0
9, 0, 7, 0
9, 0, 8, 0
9, 0, 9, 0
9, 0, 10, 0
9, 0, 11, 0
9, 0, 12, 0
9, 0, 13, 0
9, 0, 14, 0
9, 0, 15, 0
9, 0, 16, 0
9, 0, 17, 0
9, 0, 18, 0
9, 0, 19, 1.860257441421709e-07
9, 0, 20, 2.896532578233746e-07
9, 0, 21, 3.297650721378886e-07
9, 0, 22, 3.260969663188007e-07
9, 0, 23, 3.375114658865641e-07
9, 0, 24, 2.862350925170176e-07
9, 0, 25, 3.214841512999556e-07
9, 0, 26, 2.936740486347844e-07
9, 0, 27, 3.132349775114562e-07
9, 0, 28, 3.057868696032529e-07
9, 0, 29, 3.544968478763622e-07
9, 0, 30, 3.023582166861161e-07
9, 0, 31, 3.278563269759616e-07
9, 0, 32, 2.110037513602947e-07
9, 0, 33, 0
9, 0, 34, 0
9, 0, 35, 0
9, 0, 36, 0
9, 0, 37, 0
9, 0, 38, 0
9, 0, 39, 0
9, 0, 40, 0
9, 0, 41, 0
9, 0, 42, 0
9, 0, 43, 0
9, 0, 44, 0
9, 0, 45, 0
9, 0, 46, 7.76755015863273e-09
9, 0, 47, 5.097315352031728e-07
9, 0, 48, 4.624867528946197e-07
9, 0, 49, 1.303009042885606e-07
9, 0, 50, 0
9, 0, 51, 0
9, 0, 52, 0
9, 0, 53, 0
9, 0, 54, 0
9, 0, 55, 0
9, 0, 56, 0
9, 0, 57, 0
9, 0, 58, 0
9, 0, 59, 0
9, 0, 60, 0
9, 0, 61, 0
9, 0, 62, 0
9, 0, 63, 0
9, 0, 64, 0
9, 0, 65, 0
9, 0, 66, 0
9, 0, 67, 0
9, 0, 68, 0
9, 0, 69, 0
9, 0, 70, 0
9, 0, 71, 0
9, 0, 72, 0
9, 0, 73, 0
9, 0, 74, 0
9, 0, 75, 0
9, 0, 76, 0
9, 0, 77, 0
9, 0, 78, 0
9, 0, 79, 0
9, 0, 80, 0
9, 0, 81, 0
9, 0, 82, 0
9, 0, 83, 0
9, 0, 84, 0
9, 0, 85, 0
9, 0, 86, 0
9, 0, 87, 0
9, 0, 88, 0
9, 0, 89, 0
9, 0, 90, 0
9, 0, 91, 0
9, 0, 92, 0
9, 0, 93, 0
9, 0, 94, 0
9, 0, 95, 0
9, 0, 96, 0
9, 0, 97, 0
9, 0, 98, 0
9, 0, 99, 0
9, 0, 100, 0
9, 0, 101, 0
9, 0, 102, 0
9, 0, 103, 0
9, 0, 104, 0
9, 0, 105, 0
9, 0, 106, 0
9, 0, 107, 0
9, 0, 108, 0
9, 0, 109, 0
9, 0, 110, 7.355846491918783e-07
9, 0, 111, 3.300300022601732e-06
9, 0, 112, 5.416320618678583e-07
9, 0, 113, 0
9, 0, 114, 0
9, 0, 115, 0
9, 0, 116, 0
9, 0, 117, 0
9, 0, 118, 0
9, 0, 119, 0
9, 0, 120, 0
9, 0, 121, 0
9, 0, 122, 0
9, 0, 123, 0
9, 0, 124, 0
9, 0, 125, 0
9, 0, 126, 0
9, 0, 127, 0
9, 0, 128, 0
9, 0, 129, 0
9, 0, 130, 0
9, 0, 131, 0
9, 0, 132, 0
9, 0, 133, 0
9, 0, 134, 0
9, 0, 135, 0
9, 0, 136, 0
9, 0, 137, 0
9, 0, 138, 0
9, 0, 139, 0
9, 0, 140, 0
9, 0, 141, 0
9, 0, 142, 0
9, 0, 143, 0
9, 0, 144, 0
9, 0, 145, 0
9, 0, 146, 0
9, 0, 147, 0
9, 0, 148, 0
9, 0, 149, 0
9, 0, 150, 0
9, 0, 151, 0
9, 0, 152, 0
9, 0, 153, 0
9, 0, 154, 0
9, 0, 155, 0
9, 0, 156, 0
9, 0, 157, 0
9, 0, 158, 0
9, 0, 159, 0
9, 0, 160, 0
9, 0, 161, 0
9, 0, 162, 0
9, 0, 163, 0
9, 0, 164, 0
9, 0, 165, 0
9, 0, 166, 0
9, 0, 167, 0
9, 0, 168, 0
9, 0, 169, 0
9, 0, 170, 0
9, 0, 171, 0
9, 0, 172, 0
9, 0, 173, 0
9, 0, 174, 0
9, 0, 175, 0
9, 0, 176, 0
9, 0, 177, 0
9, 0, 178, 0
9, 0, 179, 0
9, 0, 180, 0
9, 0, 181, 0
9, 0, 182, 0
9, 0, 183, 0
9, 0, 184, 0
9, 0, 185, 0
9, 0, 186, 0
9, 0, 187, 0
9, 0, 188, 0
9, 0, 189, 0
9, 0, 190, 0
9, 0, 191, 0
9, 0, 192, 0
9, 0, 193, 0
9, 0, 194, 0
9, 0, 195, 0
9, 0, 196, 0
9, 0, 197, 0
9, 0, 198, 0
9, 0, 199, 0
10, 0, 0, 0
10, 0, 1, 0
10, 0, 2, 0
10, 0, 3, 0
10, 0, 4, 0
10, 0, 5, 0
10, 0, 6, 0
10, 0, 7, 0
10, 0, 8, 0
10, 0, 9, 2.910654472998431e-07
10, 0, 10, 2.673868380043132e-07
10, 0, 11, 3.009555484823068e-07
10, 0, 12, 3.339029888138612e-07
10, 0, 13, 3.552524390215694e-07
10, 0, 14, 3.072084666655428e-07
10, 0, 15, 3.219139728116716e-07
10, 0, 16, 2.643604943841638e-07
10, 0, 17, 2.773647338472074e-07
10, 0, 18, 2.867844273168885e-07
10, 0, 19, 2.807106227464828e-07
10, 0, 20, 0
10, 0, 21, 0
10, 0, 22, 0
10, 0, 23, 0
10, 0, 24, 0
10, 0, 25, 0
10, 0, 26, 0
10, 0, 27, 0
10, 0, 28, 0
10, 0, 29, 0
10, 0, 30, 0
10, 0, 31, 0
10, 0, 32, 0
10, 0, 33, 0
10, 0, 34, 0
10, 0, 35, 0
10, 0, 36, 0
10, 0, 37, 0
10, 0, 38, 0
10, 0, 39, 0
10, 0, 40, 0
10, 0, 41, 0
10, 0, 42, 0
10, 0, 43, 0
10, 0, 44, 5.893458521200046e-08
10, 0, 45, 4.743735075862787e-07
10, 0, 46, 4.459803903955617e-07
10, 0, 47, 0
10, 0, 48, 0
10, 0, 49, 0
10, 0, 50, 0
10, 0, 51, 0
10, 0, 52, 0
10, 0, 53, 0
10, 0, 54, 0
10, 0, 55, 0
10, 0, 56, 0
10, 0, 57, 0
10, 0, 58, 0
10, 0, 59, 0
10, 0, 60, 0
10, 0, 61, 0
10, 0, 62, 0
10, 0, 63, 0
10, 0, 64, 0
10, 0, 65, 0
10, 0, 66, 0
10, 0, 67, 0
10, 0, 68, 0
10, 0, 69, 0
10, 0, 70, 0
10, 0, 71, 0
10, 0, 72, 0
10, 0, 73, 0
10, 0, 74, 0
10, 0, 75, 0
10, 0, 76, 0
10, 0, 77, 0
10, 0, 78, 0
10, 0, 79, 0
10, 0, 80, 0
10, 0, 81, 0
10, 0, 82, 0
10, 0, 83, 0
10, 0, 84, 0
10, 0, 85, 0
10, 0, 86, 0
10, 0, 87, 0
10, 0, 88, 0
10, 0, 89, 0
10, 0, 90, 0
10, 0, 91, 0
10, 0, 92, 0
10, 0, 93, 0
10, 0, 94, 0
10, 0, 95, 0
10, 0, 96, 0
10, 0, 97, 0
10, 0, 98, 0
10, 0, 99, 0
10, 0, 100, 0
10, 0, 101, 0
10, 0, 102, 0
10, 0, 103, 0
10, 0, 104, 0
10, 0, 105, 0
10, 0, 106, 0
